buffer,,bm3,,bm3+NADPH_10mg_ml_2ul,,bm3+NADPH_10mg_ml_4ul,,
Wavelength (nm),Abs,Wavelength (nm),Abs,Wavelength (nm),Abs,Wavelength (nm),Abs,
799.9915161,8.038336819E-005,799.9915161,0.00120552443,799.9915161,0.00013781288,799.9915161,0.0005145553732,
798.9864502,0.001051257947,798.9864502,0.002064724453,798.9864502,0.0008263409254,798.9864502,0.001558280084,
798.0155029,3.339418254E-005,798.0155029,0.002607071307,798.0155029,-0.001210912596,798.0155029,0.0002000669483,
797.0095825,-0.0002929820912,797.0095825,0.00162661029,797.0095825,0.0006973840063,797.0095825,0.001451883116,
796.0031738,-2.950990392E-006,796.0031738,0.004668557551,796.0031738,0.0007490348071,796.0031738,0.001172377495,
794.99646,0.0001357672299,794.99646,0.003495667595,794.99646,0.0003530209651,794.99646,0.0008884862764,
793.9892578,-7.262995496E-005,793.9892578,0.002098381752,793.9892578,-0.001048564445,793.9892578,0.0006484873593,
793.0164795,-0.0002706311061,793.0164795,0.002718779026,793.0164795,-0.000820379355,793.0164795,0.001332840766,
792.0084839,-0.0002420698729,792.0084839,0.001397837419,792.0084839,5.350959327E-005,792.0084839,-0.0003115035361,
791.0001831,0.0007406333461,791.0001831,0.00510063814,791.0001831,0.0008437179495,791.0001831,0.001914546592,
789.991394,0.0004774442932,789.991394,0.003881342709,789.991394,-3.634237873E-005,789.991394,0.001895774738,
789.0170898,-0.0002826345444,789.0170898,0.001990188146,789.0170898,0.0008583981544,789.0170898,0.0007518612547,
788.0075073,0.000613983022,788.0075073,0.006244523916,788.0075073,-0.0001308597421,788.0075073,0.0006195823662,
786.9974976,0.0006531538093,786.9974976,0.0005204125773,786.9974976,0.0008519138792,786.9974976,0.001942159724,
785.9871826,-0.0007553166361,785.9871826,0.002723337617,785.9871826,-0.001068912912,785.9871826,0.001222449355,
785.0112915,0.0005464340211,785.0112915,0.003164176829,785.0112915,0.0009390183841,785.0112915,0.001757454942,
784.0002441,0.0003187991388,784.0002441,0.002036531223,784.0002441,0.0009040759178,784.0002441,0.001618607552,
782.9886475,1.084635642E-005,782.9886475,0.002582358429,782.9886475,-9.276540368E-005,782.9886475,0.002259187633,
782.0115967,-0.001529751928,782.0115967,0.004258342087,782.0115967,-0.0006122890627,782.0115967,0.0003429950448,
780.9993286,-0.0007136589265,780.9993286,0.002005375223,780.9993286,0.0009926697239,780.9993286,0.0008057228988,
779.9866943,0.0001121524911,779.9866943,0.001902274555,779.9866943,1.221834918E-005,779.9866943,0.0007072365843,
779.0084839,-0.001600630698,779.0084839,0.00259686308,779.0084839,8.719269681E-005,779.0084839,0.0004477732582,
777.9949951,0.001435936196,777.9949951,0.004763418809,777.9949951,0.001031044405,777.9949951,0.002291142708,
777.0160522,-2.060474253E-005,777.0160522,0.003676518798,777.0160522,0.0004466590181,777.0160522,0.001000634977,
776.0018921,-0.0005218581064,776.0018921,0.003219199134,776.0018921,0.001284885104,776.0018921,0.001043136115,
774.9871826,0.0001900963834,774.9871826,0.004760121461,774.9871826,0.0004317854473,774.9871826,0.0005858838558,
774.0071411,0.001614190522,774.0071411,0.005790212192,774.0071411,0.0002106593165,774.0071411,0.00174999563,
772.9916992,-0.001355291461,772.9916992,0.002147129737,772.9916992,2.215895438E-005,772.9916992,-3.59282385E-005,
772.0109863,0.000681620324,772.0109863,0.0043250327,772.0109863,9.25004133E-005,772.0109863,0.001196127734,
770.994812,0.001183668384,770.994812,0.008178366348,770.994812,0.0006296923966,770.994812,0.001345096622,
770.0132446,0.0005210345844,770.0132446,0.004562494811,770.0132446,0.0008642080938,770.0132446,0.001537835109,
768.9963379,-0.0005911436165,768.9963379,0.003304353915,768.9963379,0.0001416711166,768.9963379,0.001343642594,
768.0140381,-0.000226805394,768.0140381,0.005758680869,768.0140381,7.396251021E-005,768.0140381,0.0009017413249,
766.9963379,0.000366725988,766.9963379,0.004535734653,766.9963379,0.0006577166496,766.9963379,0.00211333856,
766.0133667,0.0001607557206,766.0133667,0.0044242125,766.0133667,0.0008484383579,766.0133667,0.001207627007,
764.994873,0.0007499423809,764.994873,0.005142939743,764.994873,0.0007478938205,764.994873,0.001492895884,
764.0111084,0.000806423137,764.0111084,0.0053711785,764.0111084,0.0008172896341,764.0111084,0.0016232325,
762.9918823,0.0007796340506,762.9918823,0.0059372494,762.9918823,0.001351795974,762.9918823,0.002451447304,
762.0073853,0.0005542355357,762.0073853,0.006401066668,762.0073853,0.000716933806,762.0073853,0.002665981883,
760.9873657,-0.0001778002043,760.9873657,0.005097809248,760.9873657,4.532869571E-005,760.9873657,0.002072865376,
760.0022583,0.0001664786832,760.0022583,0.004515907262,760.0022583,0.0002031747135,760.0022583,0.001039684983,
759.0166626,-0.001277817064,759.0166626,0.004156586714,759.0166626,-0.000283307163,759.0166626,-0.0005470917094,
757.9954834,0.001091091079,757.9954834,0.00561372377,757.9954834,0.001282911864,757.9954834,0.001281224308,
757.0092163,-0.0006763393758,757.0092163,0.005315935239,757.0092163,0.001438948908,757.0092163,0.001016072929,
755.9873657,-0.0005979681737,755.9873657,0.004458314739,755.9873657,0.000672597962,755.9873657,0.0003002774611,
755.0003052,0.0009531569667,755.0003052,0.005529635586,755.0003052,0.0009947712533,755.0003052,0.002860896988,
754.0128784,-0.0008835723274,754.0128784,0.003001966747,754.0128784,0.0002375946206,754.0128784,0.0009232459124,
752.9899292,0.0007526651025,752.9899292,0.004793412518,752.9899292,0.001082760864,752.9899292,0.001663767733,
752.00177,-0.0007114880718,752.00177,0.004364958033,752.00177,-0.0008873956394,752.00177,0.001074119355,
751.0133667,-0.0009467044729,751.0133667,0.007769250311,751.0133667,0.0005250776303,751.0133667,0.002906968351,
749.9891968,0.0002539379057,749.9891968,0.005473323632,749.9891968,8.258409071E-005,749.9891968,0.001602914301,
749,0.0001969333243,749,0.005770065822,749,0.0002529536723,749,0.001555422437,
748.010437,0.0003645756515,748.010437,0.005097102374,748.010437,0.002183239209,748.010437,0.002129128436,
746.9852295,3.896013004E-005,746.9852295,0.004501678515,746.9852295,0.0004388075613,746.9852295,0.00173746841,
745.9949951,0.0004228200705,745.9949951,0.00438030716,745.9949951,0.001345434226,745.9949951,0.002026648493,
745.0043945,0.0005270473775,745.0043945,0.005722902715,745.0043945,0.001072121202,745.0043945,0.001858909382,
744.0134277,-0.0003661320661,744.0134277,0.004688234534,744.0134277,-6.672889867E-005,744.0134277,0.001506974571,
742.9867554,0.0004355944693,742.9867554,0.004341713618,742.9867554,0.001381658716,742.9867554,0.002151682274,
741.9950562,-0.0004400972684,741.9950562,0.005952443928,741.9950562,0.0004354130942,741.9950562,0.001752594602,
741.0029907,0.0006899947184,741.0029907,0.004851756617,741.0029907,0.001610553009,741.0029907,0.002197184134,
740.0106201,-0.0002424320701,740.0106201,0.004333634395,740.0106201,0.0007630116306,740.0106201,0.001600446063,
738.9824219,-0.0004470793356,738.9824219,0.003171816934,738.9824219,0.0004331069358,738.9824219,0.00161533372,
737.9893799,0.0005638775765,737.9893799,0.006783705205,737.9893799,0.001078842324,737.9893799,0.002454675268,
736.9959106,0.000114534625,736.9959106,0.003183968365,736.9959106,0.001582545228,736.9959106,0.002303711837,
736.0020752,-0.00056901481,736.0020752,0.003535908181,736.0020752,0.000579118554,736.0020752,0.001623206539,
735.0079956,0.0001271187066,735.0079956,0.004627060611,735.0079956,0.001044148114,735.0079956,0.00166426145,
734.0135498,0.0004693590454,734.0135498,0.003554490162,734.0135498,0.00146938907,734.0135498,0.002480969066,
732.9831543,0.0004003556678,732.9831543,0.005309515167,732.9831543,0.001469856594,732.9831543,0.002627670998,
731.9879761,-0.0003281100944,731.9879761,0.003665998112,731.9879761,0.0009127658559,731.9879761,0.001597510185,
730.9924927,0.0003348087193,730.9924927,0.004869347438,730.9924927,0.001686895266,730.9924927,0.002288228134,
729.996582,0.0002259138273,729.996582,0.006222622935,729.996582,0.001063713571,729.996582,0.002355189761,
729.0003052,-0.0001821989863,729.0003052,0.004139834549,729.0003052,0.001174557721,729.0003052,0.001886519138,
728.0037842,-0.0004811605904,728.0037842,0.004890107084,728.0037842,0.001508792862,728.0037842,0.002163258847,
727.0068359,0.0001304848847,727.0068359,0.0035682444,727.0068359,0.001282470534,727.0068359,0.001956201158,
726.0096436,-0.0001835445,726.0096436,0.003064137651,726.0096436,0.0008191828965,726.0096436,0.00152313197,
725.0120239,8.231815627E-006,725.0120239,0.004961031955,725.0120239,0.0007181265391,725.0120239,0.001997573534,
724.0140991,-0.0003084511845,724.0140991,0.004627871793,724.0140991,0.0007633487694,724.0140991,0.00151655986,
723.0157471,0.0003986715165,723.0157471,0.004741121549,723.0157471,0.001026659273,723.0157471,0.001683413051,
722.0172119,0.0004156168143,722.0172119,0.004314365797,722.0172119,0.001672524842,722.0172119,0.002702603349,
720.9824829,8.890151366E-005,720.9824829,0.004127133638,720.9824829,0.001022637472,720.9824829,0.002001292305,
719.9832153,0.0003305601422,719.9832153,0.005428237375,719.9832153,0.001791608403,719.9832153,0.002127437387,
718.9835815,-0.0003784949658,718.9835815,0.003862746758,718.9835815,0.001368492958,718.9835815,0.002009484218,
717.9835815,0.0003257676435,717.9835815,0.004510048311,717.9835815,0.001356729772,717.9835815,0.002417293843,
716.9832153,0.0001042553049,716.9832153,0.004019138869,716.9832153,0.001366129844,716.9832153,0.00211867108,
715.9825439,-7.718509733E-005,715.9825439,0.004577615298,715.9825439,0.001008937717,715.9825439,0.001776142861,
715.0172729,0.0005181059241,715.0172729,0.004168635234,715.0172729,0.001746330992,715.0172729,0.002459699521,
714.0159302,9.67207452E-005,714.0159302,0.003961690236,714.0159302,0.001257936703,714.0159302,0.002522287425,
713.0142822,0.0005674803979,713.0142822,0.004294757731,713.0142822,0.001990552293,713.0142822,0.002640926978,
712.012207,-1.827510823E-005,712.012207,0.003900383366,712.012207,0.001219671802,712.012207,0.002227963647,
711.0098267,0.0003833850496,711.0098267,0.005009840708,711.0098267,0.001540978439,711.0098267,0.002568817697,
710.0072021,0.0005047589657,710.0072021,0.004707520362,710.0072021,0.001470635762,710.0072021,0.002471102169,
709.0041504,0.0004947295529,709.0041504,0.004502986092,709.0041504,0.001069993363,709.0041504,0.00249963603,
708.0007935,-0.0004680248967,708.0007935,0.002948066685,708.0007935,0.001272007823,708.0007935,0.001636146219,
706.9970703,0.0001291384106,706.9970703,0.003157501575,706.9970703,0.001308200182,706.9970703,0.002524786862,
705.993103,-5.45641924E-005,705.993103,0.003798503196,705.993103,0.001169236843,705.993103,0.002088783775,
704.9887085,-0.0002327042748,704.9887085,0.004637840204,704.9887085,0.001545083011,704.9887085,0.002224060707,
703.9840088,0.0003601454373,703.9840088,0.005302492529,703.9840088,0.00228911289,703.9840088,0.003091485007,
703.0148926,0.0001814208663,703.0148926,0.003690825077,703.0148926,0.001506169327,703.0148926,0.002051928081,
702.0095215,-0.0001259946148,702.0095215,0.003954349551,702.0095215,0.001829377841,702.0095215,0.001934905304,
701.0038452,-9.017735283E-005,701.0038452,0.003601496341,701.0038452,0.001710439916,701.0038452,0.002369791036,
699.9978027,-0.0001116577114,699.9978027,0.004218138754,699.9978027,0.001432845602,699.9978027,0.002400062047,
698.9914551,-0.0002775641915,698.9914551,0.004006389063,698.9914551,0.001658804598,698.9914551,0.002661502222,
697.9848022,-0.0002257187443,697.9848022,0.003563337727,697.9848022,0.001748176292,697.9848022,0.00228638039,
697.0137329,0.0004262662842,697.0137329,0.0031150016,697.0137329,0.00166626228,697.0137329,0.002341656014,
696.0064697,2.873437552E-005,696.0064697,0.003325638594,696.0064697,0.001283171587,696.0064697,0.002456341404,
694.9987793,0.00016065214,694.9987793,0.003550523194,694.9987793,0.001204330358,694.9987793,0.003565086285,
693.9908447,0.0006533612031,693.9908447,0.004563436378,693.9908447,0.002881743247,693.9908447,0.003068673657,
692.9825439,0.0005813995376,692.9825439,0.004819534253,692.9825439,0.001074145315,692.9825439,0.003554464085,
692.0098877,0.0004905312671,692.0098877,0.004010334145,692.0098877,0.001235065632,692.0098877,0.002785520628,
691.0009155,-0.0002480720286,691.0009155,0.003700484755,691.0009155,0.001566125895,691.0009155,0.00203689537,
689.9916382,-0.0003372667124,689.9916382,0.004221327603,689.9916382,0.002187115606,689.9916382,0.002239048015,
688.9821167,-0.001179418527,688.9821167,0.003137867665,688.9821167,0.001249213819,688.9821167,0.001797170844,
688.0081787,0.001359923626,688.0081787,0.005310537294,688.0081787,0.002886720467,688.0081787,0.003555821255,
686.9979248,-0.0004951750161,686.9979248,0.004473980516,686.9979248,0.001661377028,686.9979248,0.002995659132,
685.9873657,-0.000167139413,685.9873657,0.003692965722,685.9873657,0.002076584846,685.9873657,0.002290101722,
685.0126343,-3.515172284E-005,685.0126343,0.005212727003,685.0126343,0.001941847731,685.0126343,0.002219143324,
684.0014038,0.0009299387457,684.0014038,0.003985776566,684.0014038,0.00292943255,684.0014038,0.002920181025,
682.9898682,0.0003136181622,682.9898682,0.003862799145,682.9898682,0.00258608209,682.9898682,0.003228196176,
682.0141602,-6.326069706E-005,682.0141602,0.003946460783,682.0141602,0.001887455001,682.0141602,0.002822673181,
681.0020142,-0.0004502858792,681.0020142,0.002502604155,681.0020142,0.002272302518,681.0020142,0.002514398424,
679.989502,-0.0001617571688,679.989502,0.004015141632,679.989502,0.002467665821,679.989502,0.002888727002,
679.0128784,-4.110497321E-005,679.0128784,0.004073877819,679.0128784,0.001970242942,679.0128784,0.002771634841,
677.9997559,-7.972146705E-005,677.9997559,0.003857027274,677.9997559,0.0009962761542,677.9997559,0.003172103781,
676.9863281,-0.0008144367603,676.9863281,0.006894809194,676.9863281,0.001682321657,676.9863281,0.002617904916,
676.0087891,-0.0004400972684,676.0087891,0.002916167723,676.0087891,0.001486609923,676.0087891,0.001645136625,
674.9946899,-0.0002039852843,674.9946899,0.004773704335,674.9946899,0.001831041533,674.9946899,0.002951142145,
674.0166016,-0.001373045146,674.0166016,0.004265060183,674.0166016,0.001991852419,674.0166016,0.003219903214,
673.0018921,0.000195094588,673.0018921,0.004194039851,673.0018921,0.002537440974,673.0018921,0.003498851322,
671.9868774,0.001063168631,671.9868774,0.00571461441,671.9868774,0.003962369636,671.9868774,0.004458471667,
671.0078125,0.0003139290202,671.0078125,0.004699251149,671.0078125,0.003318074159,671.0078125,0.003226318629,
669.9921875,0.0002418681688,669.9921875,0.005489157513,669.9921875,0.00321648689,669.9921875,0.003597581293,
669.0124512,0.0004024802765,669.0124512,0.005559813231,669.0124512,0.003664484015,669.0124512,0.003591186367,
667.9962158,-0.000183958502,667.9962158,0.005250742659,667.9962158,0.002720289864,667.9962158,0.003377055284,
667.0159912,-0.001428262796,667.0159912,0.00418167701,667.0159912,0.001453181729,667.0159912,0.003197971731,
665.9991455,-7.154292689E-005,665.9991455,0.0060128076,665.9991455,0.00275441492,665.9991455,0.004019112792,
664.9818726,0.0002474885841,664.9818726,0.005451094359,664.9818726,0.002756186528,664.9818726,0.003738551168,
664.0007324,-0.0001661561255,664.0007324,0.005136208143,664.0007324,0.00275092409,664.0007324,0.003216173965,
662.9829712,0.0003828927875,662.9829712,0.008364054374,662.9829712,0.003130149795,662.9829712,0.00420080917,
662.0012207,-3.473757897E-005,662.0012207,0.005300867837,662.0012207,0.002427133499,662.0012207,0.003914148547,
660.9827271,-0.0002887913724,660.9827271,0.007917828858,660.9827271,0.002574494341,660.9827271,0.00404921174,
660.0004272,-0.0001681744616,660.0004272,0.005355978385,660.0004272,0.002834632294,660.0004272,0.004207526799,
659.0178223,-6.33124655E-005,659.0178223,0.007569512818,659.0178223,0.003571245819,659.0178223,0.0044600931,
657.9984131,0.0001093302053,657.9984131,0.006973664276,657.9984131,0.003926634323,657.9984131,0.004226267803,
657.0151978,-0.0002536084212,657.0151978,0.006915534381,657.0151978,0.002902355744,657.0151978,0.004571755417,
655.9952393,0.0004003297654,655.9952393,0.007188313641,655.9952393,0.004055952653,655.9952393,0.005088013597,
655.0114746,-0.0008597533451,655.0114746,0.006784362253,655.0114746,0.003701763926,655.0114746,0.003967071418,
653.9909058,0.0001636301458,653.9909058,0.006818413734,653.9909058,0.003236489603,653.9909058,0.004760592245,
653.0064697,-0.0007023393409,653.0064697,0.005640445277,653.0064697,0.002272146288,653.0064697,0.004698806442,
651.9853516,0.000357632438,651.9853516,0.009008881636,651.9853516,0.004370292183,651.9853516,0.005195174366,
651.0003052,0.0005549612688,651.0003052,0.007202393841,651.0003052,0.004109050147,651.0003052,0.004358656704,
650.0151367,-0.0001749021467,650.0151367,0.007544305176,650.0151367,0.003689780831,650.0151367,0.004342131782,
648.992981,-0.0004332702374,648.992981,0.007238320541,648.992981,0.003528783564,648.992981,0.005262664519,
648.0072021,3.155614104E-005,648.0072021,0.006756071467,648.0072021,0.00347320037,648.0072021,0.004768941086,
646.9844971,-0.000338249607,646.9844971,0.006683459505,646.9844971,0.003714034567,646.9844971,0.004787601996,
645.9980469,0.0008653752739,645.9980469,0.009420542046,645.9980469,0.004103013314,645.9980469,0.00594987208,
645.0113525,0.0001736001141,645.0113525,0.007774784695,645.0113525,0.003811742878,645.0113525,0.005061273463,
643.987793,-0.0007718545385,643.987793,0.005490782671,643.987793,0.00301497383,643.987793,0.004675099161,
643.0004883,8.336082101E-005,643.0004883,0.006809999235,643.0004883,0.004180056509,643.0004883,0.005647290032,
642.0129395,0.0005649402738,642.0129395,0.008206644095,642.0129395,0.004182330333,642.0129395,0.005963544827,
640.9884644,0.0001174864155,640.9884644,0.007246138062,640.9884644,0.004018198233,640.9884644,0.005288395099,
640.0003052,-0.0007259602426,640.0003052,0.008287320845,640.0003052,0.00309909787,640.0003052,0.004793124273,
639.0119019,0.0004436013405,639.0119019,0.006427337881,639.0119019,0.003382664174,639.0119019,0.005444279406,
637.9865112,0.0006865204778,637.9865112,0.006548153237,637.9865112,0.004640953615,637.9865112,0.005836910568,
636.9975586,0.0002718877513,636.9975586,0.008578045294,636.9975586,0.004510205239,636.9975586,0.00598553801,
636.0082397,0.0001181596308,636.0082397,0.007324477658,636.0082397,0.003977416549,636.0082397,0.005516946316,
634.9820557,5.798495749E-006,634.9820557,0.00710144639,634.9820557,0.003379324917,634.9820557,0.005247651134,
633.9921265,-0.000138778385,633.9921265,0.007722713053,633.9921265,0.003864052705,633.9921265,0.005810963456,
633.0020142,-5.378770948E-005,633.0020142,0.007556632161,633.0020142,0.003670566482,633.0020142,0.005232716911,
632.0115967,-0.0003095376305,632.0115967,0.008101955056,632.0115967,0.004445734899,632.0115967,0.005817863159,
630.9841919,0.0003047070641,630.9841919,0.00828299392,630.9841919,0.004532883409,630.9841919,0.006018476561,
629.9932251,-0.0001101049493,629.9932251,0.007974036969,629.9932251,0.004469063599,629.9932251,0.005841291975,
629.0020142,-6.937384114E-006,629.0020142,0.008009315468,629.0020142,0.004151568748,629.0020142,0.005906651728,
628.010498,9.894744289E-005,628.010498,0.007966523059,628.010498,0.004453397822,628.010498,0.006165748462,
626.9819336,-3.101028415E-005,626.9819336,0.007730196696,626.9819336,0.004260250367,626.9819336,0.006159841083,
625.9898071,-0.0005401629605,625.9898071,0.006848733872,625.9898071,0.004060212057,625.9898071,0.00573882414,
624.9974365,-2.412505273E-005,624.9974365,0.007831079885,624.9974365,0.004571153782,624.9974365,0.005304484162,
624.0047607,-4.990528032E-005,624.0047607,0.007650176529,624.0047607,0.003708839184,624.0047607,0.006114762276,
623.0119019,-4.928408816E-005,623.0119019,0.008278033696,623.0119019,0.004623607267,623.0119019,0.006399569567,
621.9819336,-0.0006821804564,621.9819336,0.007049218751,621.9819336,0.003604706842,621.9819336,0.005866505671,
620.9884644,-0.0003234023752,620.9884644,0.006973138545,620.9884644,0.004193542991,620.9884644,0.005929429084,
619.9946899,0.0002526169701,619.9946899,0.006778393872,619.9946899,0.004828223959,619.9946899,0.006469453685,
619.0006714,0.0001332555257,619.0006714,0.008126562461,619.0006714,0.005162507296,619.0006714,0.006685483735,
618.0064087,-0.0002643705811,618.0064087,0.006136106327,618.0064087,0.004038081039,618.0064087,0.005535770673,
617.0117798,0.0004296088591,617.0117798,0.008840511553,617.0117798,0.004670860246,617.0117798,0.006771373563,
616.0169678,-0.0005517452955,616.0169678,0.006736957934,616.0169678,0.003881499404,616.0169678,0.005551370326,
614.9850464,5.602085002E-005,614.9850464,0.007713569794,614.9850464,0.004479891155,614.9850464,0.006465276238,
613.989624,0.0005339155323,613.989624,0.007179523353,613.989624,0.004730470013,613.989624,0.006539822556,
612.9938965,-0.0005525209126,612.9938965,0.005691245198,612.9938965,0.004444872029,612.9938965,0.006126497407,
611.9980469,-0.0005280632176,611.9980469,0.007518914528,611.9980469,0.004350263625,611.9980469,0.006195865106,
611.0018311,-0.000209780992,611.0018311,0.007735019084,611.0018311,0.004443459678,611.0018311,0.006559426896,
610.0054321,3.158099616E-006,610.0054321,0.0075333477,610.0054321,0.004986011889,610.0054321,0.006378395949,
609.008606,0.0001809288224,609.008606,0.007090000436,609.008606,0.004816733301,609.008606,0.006897360552,
608.0116577,-8.044613787E-005,608.0116577,0.008222867735,608.0116577,0.004619342741,608.0116577,0.007004652638,
607.0144043,-0.00031760821,607.0144043,0.007854221389,607.0144043,0.004908327945,607.0144043,0.006771899294,
606.0169067,0.0001218364559,606.0169067,0.007455707528,606.0169067,0.005454738159,606.0169067,0.00703203911,
604.9821167,0.0004153836344,604.9821167,0.007196682971,604.9821167,0.005778118968,604.9821167,0.007496211678,
603.9840088,7.354826084E-005,603.9840088,0.007397855166,603.9840088,0.005350946449,603.9840088,0.007234083023,
602.9857178,0.0008121286519,602.9857178,0.009612585418,602.9857178,0.006227533333,602.9857178,0.007518519182,
601.9870605,-0.0003265581036,601.9870605,0.008310355246,601.9870605,0.005608374253,601.9870605,0.007187681738,
600.9881592,-7.935912436E-005,600.9881592,0.008313046768,600.9881592,0.005404411815,600.9881592,0.007382162381,
599.9890137,-0.000294948084,599.9890137,0.00977349747,599.9890137,0.005973753985,599.9890137,0.007490996737,
598.989624,0.0004270695208,598.989624,0.008934094571,598.989624,0.00598398922,598.989624,0.008130281232,
597.9899902,0.0001539711375,597.9899902,0.009569396265,597.9899902,0.006403877866,597.9899902,0.008321543224,
596.9899902,0.000523937284,596.9899902,0.01037097536,596.9899902,0.006762013305,596.9899902,0.00869930163,
595.9899292,0.0001628791651,595.9899292,0.009610097855,595.9899292,0.006571515929,595.9899292,0.008420953527,
594.9893799,4.317994171E-005,594.9893799,0.00968648307,594.9893799,0.006843185052,594.9893799,0.00875164941,
593.9887085,0.0003485131601,593.9887085,0.00972780399,593.9887085,0.00690982677,593.9887085,0.008941018023,
592.9877319,0.0004056672042,592.9877319,0.01036100741,592.9877319,0.007046982646,592.9877319,0.009147521108,
591.9864502,-0.0001503196836,591.9864502,0.009644503705,591.9864502,0.007092342246,591.9864502,0.00887588691,
590.9849854,6.464207399E-005,590.9849854,0.01000940241,590.9849854,0.007505271584,590.9849854,0.009518458508,
589.9832153,3.290231325E-005,589.9832153,0.01028834656,589.9832153,0.007272118237,589.9832153,0.009120688774,
589.0183105,0.0001454258309,589.0183105,0.01113494113,589.0183105,0.008449616842,589.0183105,0.0106831817,
588.0160522,-0.0002985179017,588.0160522,0.01150896307,588.0160522,0.007686140481,588.0160522,0.009639395401,
587.0135498,0.0007570733433,587.0135498,0.01038165949,587.0135498,0.008870655671,587.0135498,0.01033372805,
586.0107422,0.0001948097051,586.0107422,0.01171288826,586.0107422,0.009035416879,586.0107422,0.01107014436,
585.0076904,-2.966430657E-005,585.0076904,0.01117592305,585.0076904,0.008812826127,585.0076904,0.01048130356,
584.0043945,-0.0001037385737,584.0043945,0.01166512817,584.0043945,0.009336348623,584.0043945,0.01100509055,
583.0008545,-0.0003498373553,583.0008545,0.01119547151,583.0008545,0.009987521917,583.0008545,0.01178754214,
581.9970093,-0.0004438210453,581.9970093,0.01198734064,581.9970093,0.01013479475,581.9970093,0.01206041966,
580.992981,-0.0002168185165,580.992981,0.01368112024,580.992981,0.01068755891,580.992981,0.01288423967,
579.9886475,-4.555906344E-006,579.9886475,0.01238766592,579.9886475,0.01110039093,579.9886475,0.01276490092,
578.9840698,0.0008844917174,578.9840698,0.01198901702,578.9840698,0.01204389147,578.9840698,0.01420971844,
578.0164795,-0.0001234585216,578.0164795,0.01322721224,578.0164795,0.01197124179,578.0164795,0.01424952038,
577.0114136,8.059049287E-005,577.0114136,0.01328955591,577.0114136,0.01200884301,577.0114136,0.01461831015,
576.0060425,4.903079025E-005,576.0060425,0.01408985537,576.0060425,0.01278604195,576.0060425,0.01469041314,
575.0004883,0.0002913925273,575.0004883,0.01348427963,575.0004883,0.01308307517,575.0004883,0.0150925694,
573.9946899,-0.0002063656721,573.9946899,0.01298859343,573.9946899,0.01337158307,573.9946899,0.01520927809,
572.9885254,0.0005649402738,572.9885254,0.01416347548,572.9885254,0.01416160353,572.9885254,0.01617441326,
571.9821777,-9.6492171E-005,571.9821777,0.01470730919,571.9821777,0.01427017059,571.9821777,0.01632041298,
571.0129395,0.0002875588543,571.0129395,0.01333578676,571.0129395,0.01445053425,571.0129395,0.01643317752,
570.0061035,0.0003043703036,570.0061035,0.01445149817,570.0061035,0.01496107504,570.0061035,0.01662982628,
568.9990234,0.0002553883824,568.9990234,0.01443124004,568.9990234,0.01487732679,568.9990234,0.01735434681,
567.9916992,0.0002757990151,567.9916992,0.01465480216,567.9916992,0.01490387507,567.9916992,0.01704885811,
566.9840698,-7.930736319E-005,566.9840698,0.01406833064,566.9840698,0.01484153979,566.9840698,0.01659682579,
566.0135498,0.0002154246758,566.0135498,0.0149284685,566.0135498,0.01493291557,566.0135498,0.01704204828,
565.0054932,2.75953189E-005,565.0054932,0.01486757677,565.0054932,0.01483626291,565.0054932,0.01700616255,
563.9971924,0.0004515565233,563.9971924,0.0156836994,563.9971924,0.01524662413,563.9971924,0.0161748156,
562.9885864,0.0001235712989,562.9885864,0.01420046482,562.9885864,0.01467648987,562.9885864,0.01660976186,
562.0171509,-6.031011799E-005,562.0171509,0.01385268662,562.0171509,0.01457478106,562.0171509,0.01635952108,
561.0081177,-4.04320017E-005,561.0081177,0.01480221935,561.0081177,0.0147786513,561.0081177,0.01653655991,
559.9988403,-0.0003794260556,559.9988403,0.01493822038,559.9988403,0.01410889439,559.9988403,0.01596126519,
558.9892578,0.0002372061281,558.9892578,0.01615039259,558.9892578,0.01450965554,558.9892578,0.01629447564,
558.0168457,-0.0002174394613,558.0168457,0.01563198678,558.0168457,0.0141779976,558.0168457,0.01603952795,
557.006897,-0.0001619641844,557.006897,0.01505030505,557.006897,0.01447424665,557.006897,0.01590777375,
555.996582,-0.0001208706526,555.996582,0.01589182392,555.996582,0.01425808016,555.996582,0.01555873454,
554.9860229,-8.670934039E-005,554.9860229,0.01618873328,554.9860229,0.01394946873,554.9860229,0.0153465867,
554.0127563,2.008797674E-005,554.0127563,0.01561620831,554.0127563,0.01414876711,554.0127563,0.01541897189,
553.00177,0.0002768351114,553.00177,0.01577367075,553.00177,0.01427399646,553.00177,0.01565313339,
551.9905396,0.0001477822516,551.9905396,0.01677646302,551.9905396,0.01435645018,551.9905396,0.01538802031,
551.0164795,0.0003619589843,551.0164795,0.01653860323,551.0164795,0.01425187383,551.0164795,0.01600950025,
550.0047607,-7.77027235E-005,550.0047607,0.0154697746,550.0047607,0.01409747638,550.0047607,0.01572500542,
548.9928589,1.757692735E-005,548.9928589,0.0177685786,548.9928589,0.01451136824,548.9928589,0.01599166729,
548.0180054,0.0002872480254,548.0180054,0.01681754924,548.0180054,0.01455526613,548.0180054,0.01599770971,
547.0056152,0.0004063408705,547.0056152,0.01718026027,547.0056152,0.01517536677,547.0056152,0.01642726175,
545.992981,8.675254503E-005,545.992981,0.0179077778,545.992981,0.01512950286,545.992981,0.01610931568,
545.0176392,0.00014879214,545.0176392,0.0178838782,545.0176392,0.01513462234,545.0176392,0.01630812883,
544.0044556,0.0001654687367,544.0044556,0.0174292773,544.0044556,0.01525056548,544.0044556,0.01655347273,
542.9910889,0.0001350939856,542.9910889,0.01740200818,542.9910889,0.01557252556,542.9910889,0.01655670069,
542.0150146,5.749654156E-005,542.0150146,0.0180146955,542.0150146,0.01554539986,542.0150146,0.01705812104,
541.0010986,-7.221584383E-005,541.0010986,0.01805042103,541.0010986,0.01567913778,541.0010986,0.01700419746,
539.9869995,4.297091891E-006,539.9869995,0.01895391196,539.9869995,0.01613564417,539.9869995,0.01748945192,
539.0102539,0.0001294232352,539.0102539,0.01848668233,539.0102539,0.01651496626,539.0102539,0.01734561846,
537.9957275,0.000205246557,537.9957275,0.01890721545,537.9957275,0.01599693112,537.9957275,0.0175784491,
537.0184937,0.0002000669483,537.0184937,0.01933592185,537.0184937,0.01662684046,537.0184937,0.01775932871,
536.00354,-7.294053648E-005,536.00354,0.01874255948,536.00354,0.01660376415,536.00354,0.01749688946,
534.9882813,-0.0002995526302,534.9882813,0.01892427541,534.9882813,0.01688896865,534.9882813,0.01774128899,
534.010437,5.174913531E-005,534.010437,0.01946105994,534.010437,0.01696336083,534.010437,0.01811518893,
532.9946899,-0.0001259428536,532.9946899,0.0192858018,532.9946899,0.01705015078,532.9946899,0.01820650138,
532.0163574,2.772475636E-005,532.0163574,0.01965450682,532.0163574,0.01676898263,532.0163574,0.01836657897,
531.0001831,-4.840406473E-005,531.0001831,0.01986879669,531.0001831,0.01706568524,531.0001831,0.01812317781,
529.9837646,-9.685449186E-005,529.9837646,0.02016683854,529.9837646,0.01719200239,529.9837646,0.01834594831,
529.0047607,5.876154773E-006,529.0047607,0.02057695016,529.0047607,0.0175012555,529.0047607,0.01830320433,
527.987915,0.0001405835646,527.987915,0.02086904272,527.987915,0.01760737225,527.987915,0.01857404783,
527.0084839,0.0001220694976,527.0084839,0.02130338922,527.0084839,0.01762289926,527.0084839,0.01833317615,
525.9910889,0.0001594868518,525.9910889,0.02132062614,525.9910889,0.01765207015,525.9910889,0.01825582236,
525.0112915,0.0004126630083,525.0112915,0.02215774916,525.0112915,0.01804648153,525.0112915,0.01856964454,
523.9934692,0.0004202289565,523.9934692,0.02275612764,523.9934692,0.01818444766,523.9934692,0.01854341105,
523.0132446,0.0002151656954,523.0132446,0.02250542864,523.0132446,0.01822539791,523.0132446,0.01907425933,
521.9949951,7.121813542E-005,521.9949951,0.0226897914,521.9949951,0.01820933446,521.9949951,0.01821122505,
521.0142822,0.0002212519466,521.0142822,0.02292187698,521.0142822,0.01845348626,521.0142822,0.01869691163,
519.9956055,-0.0005231508403,519.9956055,0.02316577174,519.9956055,0.01848187484,519.9956055,0.01875047758,
519.0144043,-6.27948175E-005,519.0144043,0.02378694899,519.0144043,0.01880740188,519.0144043,0.01914426684,
517.9952393,-0.0002269606339,517.9952393,0.02459605411,517.9952393,0.01896091551,517.9952393,0.01919312589,
517.0136719,0.0003359226685,517.0136719,0.02577003464,517.0136719,0.01956007443,517.0136719,0.01965290867,
515.9941406,0.0001085275362,515.9941406,0.02535839379,515.9941406,0.0202774331,515.9941406,0.02007066831,
515.012085,-3.049259976E-005,515.012085,0.02569095977,515.012085,0.02007606253,515.012085,0.01989947259,
513.9920654,-0.0001901684591,513.9920654,0.02664542943,513.9920654,0.02078775875,513.9920654,0.02024152316,
513.0095825,-6.729830056E-005,513.0095825,0.0270670522,513.0095825,0.02110235766,513.0095825,0.02029373497,
511.9890747,0.0002971172216,511.9890747,0.02768556215,511.9890747,0.02127701789,511.9890747,0.02041239291,
511.0062561,-0.0001300316362,511.0062561,0.02805882134,511.0062561,0.02210495993,511.0062561,0.02119274996,
509.9853821,-8.712342969E-005,509.9853821,0.02823011391,509.9853821,0.02191714197,509.9853821,0.02137019299,
509.0020142,1.786135499E-006,509.0020142,0.0277739428,509.0020142,0.02217134275,509.0020142,0.02104983106,
508.0185547,-4.773110413E-005,508.0185547,0.02944981866,508.0185547,0.02312577143,508.0185547,0.02176742628,
506.9969482,8.00726848E-005,506.9969482,0.02987142839,506.9969482,0.0233529266,506.9969482,0.02201562934,
506.0130615,1.969966797E-005,506.0130615,0.03044452332,506.0130615,0.02403390221,506.0130615,0.02265264466,
504.9910889,-0.0001068441343,504.9910889,0.03080640547,504.9910889,0.02439823002,504.9910889,0.02294935659,
504.0066528,-0.0001828199893,504.0066528,0.03111338615,504.0066528,0.02461188845,504.0066528,0.02333894186,
502.9842834,0.0005795850884,502.9842834,0.03171791881,502.9842834,0.0254385341,502.9842834,0.02363732643,
501.9995117,-0.0007066294784,501.9995117,0.0325213857,501.9995117,0.0256849993,501.9995117,0.02386247925,
501.0144958,9.804122965E-005,501.0144958,0.03232463449,501.0144958,0.02586420625,501.0144958,0.02423052117,
499.9914551,-0.0002629735682,499.9914551,0.03393343464,499.9914551,0.02685276046,499.9914551,0.0247717686,
499.0060425,-0.0002262361959,499.0060425,0.03393108398,499.0060425,0.02714560553,499.0060425,0.02497971617,
497.9825745,7.092813121E-006,497.9825745,0.03513041139,497.9825745,0.02731890976,497.9825745,0.02511510253,
496.9967957,-0.0001248559565,496.9967957,0.03469962999,496.9967957,0.02773216553,496.9967957,0.02501920052,
496.0107117,0.0001240114943,496.0107117,0.03558960184,496.0107117,0.02827942744,496.0107117,0.0260206461,
494.9865417,0.0001860046177,494.9865417,0.03566448763,494.9865417,0.02894864231,494.9865417,0.02613254823,
494.0000916,-4.830053149E-005,494.0000916,0.03665906936,494.0000916,0.02916283533,494.0000916,0.0264618285,
493.0135193,9.097281873E-005,493.0135193,0.03687041998,493.0135193,0.02993839979,493.0135193,0.02693127654,
491.988739,0.0002323110239,491.988739,0.038117975,491.988739,0.03038913384,491.988739,0.02734868228,
491.0016785,0.000213637657,491.0016785,0.03849510849,491.0016785,0.03067356721,491.0016785,0.0275039766,
490.0144348,-0.0002266501542,490.0144348,0.0389120318,490.0144348,0.03128163144,490.0144348,0.02791834623,
488.9890442,0.0005241705221,488.9890442,0.03977502882,488.9890442,0.03154794499,488.9890442,0.02804783173,
488.0014038,0.0004485506506,488.0014038,0.04026085883,488.0014038,0.03228866309,488.0014038,0.02872548439,
487.0135803,2.40740178E-006,487.0135803,0.04050057009,487.0135803,0.03269849718,487.0135803,0.02897387743,
485.9874878,0.0003055619018,485.9874878,0.04091686755,485.9874878,0.03325457126,485.9874878,0.02936137468,
484.9992371,-0.0001228374313,484.9992371,0.04099916294,484.9992371,0.03332011029,484.9992371,0.02923653647,
484.0108337,-0.0001426600211,484.0108337,0.04222041741,484.0108337,0.03391890973,484.0108337,0.02994020283,
482.9841309,-0.0002089530317,482.9841309,0.04268266261,482.9841309,0.03427185118,482.9841309,0.03011506982,
481.9953308,0.0001107801872,481.9953308,0.04355616868,481.9953308,0.0350423716,481.9953308,0.03072774224,
481.0062866,-0.0003291964822,481.0062866,0.04312973097,481.0062866,0.03512942791,481.0062866,0.03059770539,
480.0170288,-0.0004772302636,480.0170288,0.04425019398,480.0170288,0.03582905233,480.0170288,0.03134509176,
478.9895325,-0.0003097445588,478.9895325,0.04459717497,478.9895325,0.036264617,478.9895325,0.03144354373,
477.999939,-0.0003082442272,477.999939,0.04495313764,477.999939,0.03654675558,477.999939,0.03176064044,
477.0100708,2.808718455E-005,477.0100708,0.04534998909,477.0100708,0.03721482679,477.0100708,0.03217825666,
475.9819946,-3.696358908E-005,475.9819946,0.04572241381,475.9819946,0.03719124943,475.9819946,0.03241672367,
474.9916992,-0.0003139350738,474.9916992,0.04639847949,474.9916992,0.03718586266,474.9916992,0.0327042453,
474.0012817,-7.112881576E-005,474.0012817,0.04694369063,474.0012817,0.03769421577,474.0012817,0.03305840865,
473.0107117,-0.0002601795713,473.0107117,0.04673620313,473.0107117,0.03847049922,473.0107117,0.03329107165,
471.9817505,-0.0003007425694,471.9817505,0.04715226218,471.9817505,0.03876313567,471.9817505,0.03342764825,
470.9907532,-0.0001498539059,470.9907532,0.0480703488,470.9907532,0.03885968775,470.9907532,0.03366823122,
469.9995728,-0.0001958608336,469.9995728,0.04869743437,469.9995728,0.0392478928,469.9995728,0.03394664824,
469.0081177,-5.280705409E-006,469.0081177,0.04856868088,469.0081177,0.03976949677,469.0081177,0.03442829475,
468.016571,-0.0001376397704,468.016571,0.04958780855,468.016571,0.03944803402,468.016571,0.03407850116,
466.9866638,-0.0001238208206,466.9866638,0.04911894351,466.9866638,0.04048676044,466.9866638,0.03493799642,
465.9946899,-0.0003146076342,465.9946899,0.04910398647,465.9946899,0.04088830948,465.9946899,0.03555403277,
465.0025635,-9.40076643E-005,465.0025635,0.04936866835,465.0025635,0.04099085554,465.0025635,0.03589393944,
464.0101929,0.0005083613214,464.0101929,0.04985112697,464.0101929,0.04192245007,464.0101929,0.03606171533,
463.0176697,-0.0002027950977,463.0176697,0.04967872798,463.0176697,0.04148194939,463.0176697,0.03601111844,
461.9867554,0.0001095632397,461.9867554,0.05059132725,461.9867554,0.04211849719,461.9867554,0.03693163022,
460.993866,-0.0001192144045,460.993866,0.05029921979,460.993866,0.04191906005,460.993866,0.0369688049,
460.0006714,-7.216408267E-005,460.0006714,0.05042639375,460.0006714,0.04250882566,460.0006714,0.03761830181,
459.0073853,4.563936091E-005,459.0073853,0.05076028034,459.0073853,0.04256926849,459.0073853,0.03775954992,
458.0138855,0.0002531090868,458.0138855,0.05056736246,458.0138855,0.04334662855,458.0138855,0.03878555074,
456.9819946,0.0001580625976,456.9819946,0.05081233755,456.9819946,0.04418659583,456.9819946,0.038833756,
455.9881287,0.0006254409673,455.9881287,0.05134933814,455.9881287,0.04482987896,455.9881287,0.03999647498,
454.9940796,0.0004185965809,454.9940796,0.05149259046,454.9940796,0.04531249031,454.9940796,0.04022169858,
453.9998169,0.0001942917588,453.9998169,0.05163206905,453.9998169,0.04530938715,453.9998169,0.04038538784,
453.0054016,0.0002098823607,453.0054016,0.05276056379,453.0054016,0.04593940452,453.0054016,0.04121590778,
452.0108337,-0.0001246489264,452.0108337,0.05297905207,452.0108337,0.04645229131,452.0108337,0.04168708622,
451.0160217,-0.0001340168674,451.0160217,0.05275185406,451.0160217,0.04719167948,451.0160217,0.04265861586,
449.9827881,0.0001835703006,449.9827881,0.05292422324,449.9827881,0.04824705794,449.9827881,0.04359795153,
448.9876099,0.0003607672406,448.9876099,0.05403298512,448.9876099,0.04866123945,448.9876099,0.04402052239,
447.9922791,-0.0002466749866,447.9922791,0.05426848307,447.9922791,0.04946148396,447.9922791,0.04472237825,
446.9966736,3.486979767E-005,446.9966736,0.0538752377,446.9966736,0.05018274486,446.9966736,0.04591318965,
446.0010071,0.0001767853682,446.0010071,0.05403453857,446.0010071,0.05091655254,446.0010071,0.0471717082,
445.0050659,0.0002856938518,445.0050659,0.05535998195,445.0050659,0.05212881416,445.0050659,0.04792394489,
444.0089722,1.915565917E-006,444.0089722,0.05531608313,444.0089722,0.05330308527,444.0089722,0.0492708236,
443.0127258,0.0001230534399,443.0127258,0.05649397522,443.0127258,0.05443511531,443.0127258,0.05047765374,
442.0162964,0.0003478913859,442.0162964,0.05721798167,442.0162964,0.05593126267,442.0162964,0.0527437292,
440.9813538,0.0001389004319,440.9813538,0.0578805469,440.9813538,0.05691780895,440.9813538,0.05400575325,
439.9844971,-0.0002430012537,439.9844971,0.05902880058,439.9844971,0.05863255635,439.9844971,0.0558366701,
438.9875183,8.457769582E-005,438.9875183,0.05977632478,438.9875183,0.06047012284,438.9875183,0.0574311614,
437.990387,0.0001620246039,437.990387,0.06063025445,437.990387,0.0624243319,437.990387,0.05988110974,
436.992981,-0.0001377950393,436.992981,0.06196744367,436.992981,0.06452150643,436.992981,0.06199150905,
435.9954834,0.0003803278087,435.9954834,0.06447916478,435.9954834,0.06783092022,435.9954834,0.06565272808,
434.9977722,0.0001799706515,434.9977722,0.06548513472,434.9977722,0.07070460171,434.9977722,0.06860829145,
433.999939,0.0002512442006,433.999939,0.06676930189,433.999939,0.07400485873,433.999939,0.07189790905,
433.0018311,0.0001492841548,433.0018311,0.06858178973,433.0018311,0.0764105171,433.0018311,0.07546548545,
432.0036011,5.731531564E-005,432.0036011,0.0708277151,432.0036011,0.07912372798,432.0036011,0.07803948224,
431.0052185,0.000272820238,431.0052185,0.07225942612,431.0052185,0.08385635912,431.0052185,0.08321863413,
430.0065613,-0.0003234541218,430.0065613,0.0748956874,430.0065613,0.08748779446,430.0065613,0.08801511675,
429.0078735,3.349773397E-005,429.0078735,0.07712042332,429.0078735,0.09141802788,429.0078735,0.09230105579,
428.0089111,-2.635111559E-005,428.0089111,0.07952836901,428.0089111,0.09669931233,428.0089111,0.09711005539,
427.0098267,0.0001908991981,427.0098267,0.08249203861,427.0098267,0.1015463844,427.0098267,0.1021677554,
426.010498,-8.515648369E-005,426.010498,0.08482507616,426.010498,0.1069260687,426.010498,0.107185781,
425.0110474,1.255487587E-005,425.0110474,0.08693762124,425.0110474,0.1105439886,425.0110474,0.1120388359,
424.0114441,0.0001399103057,424.0114441,0.09030746669,424.0114441,0.1152317971,424.0114441,0.1163641885,
423.0116577,-0.0001410556142,423.0116577,0.09214583784,423.0116577,0.1189172789,423.0116577,0.1199638918,
422.0116577,0.000191986881,422.0116577,0.09478276968,422.0116577,0.1226358563,422.0116577,0.1238127425,
421.0115051,0.0001935407345,421.0115051,0.09673094749,421.0115051,0.1249917895,421.0115051,0.1270338446,
420.0112,0.0004292979138,420.0112,0.09854460508,420.0112,0.127830416,420.0112,0.1294304878,
419.0106506,3.352362182E-005,419.0106506,0.1001469791,419.0106506,0.1295108795,419.0106506,0.1312260628,
418.0100098,0.0001453999284,418.0100098,0.1017342135,418.0100098,0.130527705,418.0100098,0.1318646967,
417.0091553,3.46109191E-005,417.0091553,0.1032577902,417.0091553,0.1311210692,417.0091553,0.1327130944,
416.0081787,0.0004896760802,416.0081787,0.1037659571,416.0081787,0.1307332963,416.0081787,0.1320470273,
415.006958,0.0001603931887,415.006958,0.1047035381,415.006958,0.1294849068,415.006958,0.130665645,
414.0056458,-5.679010064E-005,414.0056458,0.1049136966,414.0056458,0.1277813315,414.0056458,0.1284479648,
413.0041199,-9.178194159E-005,413.0041199,0.1059019864,413.0041199,0.1253104508,413.0041199,0.1264282465,
412.0024414,0.0001839846518,412.0024414,0.1060645133,412.0024414,0.1229447871,412.0024414,0.1235727295,
411.0005798,0.000276109844,411.0005798,0.1065962315,411.0005798,0.1201171279,411.0005798,0.1202862561,
409.9985657,-0.000436735485,409.9985657,0.1066650897,409.9985657,0.1173406839,409.9985657,0.1174038798,
408.9964294,-7.646041922E-005,408.9964294,0.1067454815,408.9964294,0.1145221666,408.9964294,0.1138805896,
407.9940491,-4.731697118E-005,407.9940491,0.1065342277,407.9940491,0.1113915071,407.9940491,0.1109885275,
406.9915161,0.0004654460645,406.9915161,0.1082416624,406.9915161,0.1093658134,406.9915161,0.1077259406,
405.9888611,-0.0002899813408,405.9888611,0.1085515842,405.9888611,0.1057058424,405.9888611,0.104341045,
404.9859619,-0.0001225268934,404.9859619,0.1084980443,404.9859619,0.1035400853,404.9859619,0.1012149155,
403.9829712,-0.0005311657442,403.9829712,0.1096782684,403.9829712,0.1016215459,403.9829712,0.09854321182,
403.0183716,0.0003873750393,403.0183716,0.1111476868,403.0183716,0.1001837179,403.0183716,0.09705492854,
402.0150452,-0.0003104688367,402.0150452,0.111127831,402.0150452,0.09773623198,402.0150452,0.09400746226,
401.0115662,-0.0002940168197,401.0115662,0.1126358584,401.0115662,0.09629487246,401.0115662,0.09212251008,
400.0078735,-9.219603089E-005,400.0078735,0.1133922413,400.0078735,0.09487371147,400.0078735,0.0899817273,
399.0040588,-0.0001706067851,399.0040588,0.1148440912,399.0040588,0.09334857017,399.0040588,0.08811460435,
398.000061,3.789870971E-005,398.000061,0.1165245846,398.000061,0.09239070863,398.000061,0.0872169435,
396.9959106,0.0001121007081,396.9959106,0.1170228422,396.9959106,0.09122240543,396.9959106,0.0855788216,
395.9915771,-0.0001109330915,395.9915771,0.1182216331,395.9915771,0.09052117169,395.9915771,0.0843115747,
394.9870605,0.0004213949724,394.9870605,0.1188740879,394.9870605,0.08927514404,394.9870605,0.08290155232,
393.9824219,8.22992879E-005,393.9824219,0.1196217909,393.9824219,0.0887472108,393.9824219,0.08195806295,
393.0162964,0.0004733757232,393.0162964,0.1196513176,393.0162964,0.08793599904,393.0162964,0.08124807477,
392.0113525,-0.0001991209865,392.0113525,0.1198987588,392.0113525,0.08696257323,392.0113525,0.08007203788,
391.0062561,-6.181128992E-005,391.0062561,0.1196140796,391.0062561,0.08619032055,391.0062561,0.07920411974,
390.0009766,0.0005309868138,390.0009766,0.1194419414,390.0009766,0.08504232764,390.0009766,0.0780364424,
388.9955444,0.0001850205299,388.9955444,0.1192228273,388.9955444,0.08379422873,388.9955444,0.07675279677,
387.9899292,0.0003526582732,387.9899292,0.1180775613,387.9899292,0.08310552686,387.9899292,0.07600328326,
386.9842224,-0.000309951487,386.9842224,0.1165574566,386.9842224,0.08172374964,386.9842224,0.07433689386,
386.0169678,0.0002081471757,386.0169678,0.115566574,386.0169678,0.08082854748,386.0169678,0.07408412546,
385.0109253,-4.038023326E-005,385.0109253,0.1139662936,385.0109253,0.07933824509,385.0109253,0.07287858427,
384.0046692,0.0002186102356,384.0046692,0.1128418371,384.0046692,0.07887585461,384.0046692,0.07201800495,
382.9983215,-0.0002440878452,382.9983215,0.1100102216,382.9983215,0.07714874297,382.9983215,0.07097312063,
381.9917603,0.00018266392,381.9917603,0.109384954,381.9917603,0.07687816769,381.9917603,0.07056592405,
380.9851074,-0.0002345153189,380.9851074,0.1079761758,380.9851074,0.07578323036,380.9851074,0.06958571821,
380.0169983,6.91160858E-006,380.0169983,0.1059529632,380.0169983,0.07460460067,380.0169983,0.06911565363,
379.0099792,-0.0001925489196,379.0099792,0.1043956578,379.0099792,0.07411617786,379.0099792,0.06796809286,
378.0028687,0.0001973476756,378.0028687,0.1028917804,378.0028687,0.07333382964,378.0028687,0.06821778417,
376.9955444,-0.0001515617769,376.9955444,0.09980322421,376.9955444,0.0722432211,376.9955444,0.06685072929,
375.9880981,-0.0004603191046,375.9880981,0.09939259291,375.9880981,0.07149522007,375.9880981,0.06647286564,
375.0192566,0.0001525987027,375.0192566,0.09726724774,375.0192566,0.07091027498,375.0192566,0.06643316895,
374.0115051,0.0002100118581,374.0115051,0.09637016803,374.0115051,0.07072574645,374.0115051,0.06638373435,
373.0035706,0.0005173284444,373.0035706,0.0956011191,373.0035706,0.06997757405,373.0035706,0.06653079391,
371.9955444,7.013075083E-005,371.9955444,0.093142353,371.9955444,0.0691787228,371.9955444,0.06566374749,
370.9873352,-0.0006310036988,370.9873352,0.09155214578,370.9873352,0.06892526895,370.9873352,0.0654662922,
370.0177307,0.0001055758112,370.0177307,0.09059272707,370.0177307,0.06915596128,370.0177307,0.06558004767,
369.0092468,-0.0001114506813,369.0092468,0.08890102804,369.0092468,0.06810118258,369.0092468,0.06591190398,
368.0005798,-0.0003904954356,368.0005798,0.08797492087,368.0005798,0.06791351736,368.0005798,0.06555087864,
366.9917908,4.576880383E-005,366.9917908,0.08704312891,366.9917908,0.06802427769,366.9917908,0.065922454,
365.9828186,-0.0003689253936,365.9828186,0.08600230515,365.9828186,0.06752616912,365.9828186,0.06620810926,
365.0125122,0.0003917795839,365.0125122,0.08385363221,365.0125122,0.06681458652,365.0125122,0.06623455137,
364.0032959,0.0002439920063,364.0032959,0.08288920671,364.0032959,0.06737940758,364.0032959,0.06566327065,
362.993866,0.0004885098897,362.993866,0.08254240453,362.993866,0.06703536958,362.993866,0.06684755534,
361.984314,0.0002968063636,361.984314,0.08036451042,361.984314,0.06625430286,361.984314,0.06619122624,
361.0134277,0.0003075824352,361.0134277,0.07994399965,361.0134277,0.06597045064,361.0134277,0.06598461419,
360.0036621,0.0005800775834,360.0036621,0.07875068486,360.0036621,0.06594399363,360.0036621,0.06617422402,
358.9936218,0.0003625030222,358.9936218,0.07658685744,358.9936218,0.06519195437,358.9936218,0.06592959166,
357.9835205,0.0006753979833,357.9835205,0.07497859001,357.9835205,0.06469453126,357.9835205,0.06587138772,
357.0121155,1.993224032E-006,357.0121155,0.07292157412,357.0121155,0.06418632716,357.0121155,0.06516443193,
356.0016785,0.0005444123526,356.0016785,0.07178096473,356.0016785,0.06353643537,356.0016785,0.06507285684,
354.9911194,-0.0003326625738,354.9911194,0.07040379196,354.9911194,0.06258437783,354.9911194,0.06419479102,
354.0192871,0.0005137519329,354.0192871,0.06942282617,354.0192871,0.06224274635,354.0192871,0.06444493681,
353.0084534,-0.0001228374313,353.0084534,0.06706669927,353.0084534,0.06143660098,353.0084534,0.06362849474,
351.9974365,0.0004738421994,351.9974365,0.06701691449,351.9974365,0.06094125286,351.9974365,0.06401111186,
350.9863281,-9.16266581E-005,350.9863281,0.0658030957,350.9863281,0.05961128324,350.9863281,0.0628470853,
350.0139465,0.0001356895518,350.0139465,0.06297536194,350.0139465,0.05899804831,350.0139465,0.06222105771,
349.002533,0.0004248411569,349.002533,0.06296117604,349.002533,0.0585247837,349.002533,0.0613341853,
347.9909973,0.0001227945031,347.9909973,0.06118413433,347.9909973,0.05773085728,347.9909973,0.0613193661,
347.0181885,-6.377834507E-005,347.0181885,0.06001284719,347.0181885,0.056491822,347.0181885,0.06040095165,
346.0063477,-0.0002039335377,346.0063477,0.05845823511,346.0063477,0.05600269884,346.0063477,0.05993391201,
344.9943848,-0.000218733112,344.9943848,0.05737869069,344.9943848,0.05536439642,344.9943848,0.05906714499,
343.9822693,-0.0003049849183,343.9822693,0.05626899749,343.9822693,0.05377614126,343.9822693,0.05873925984,
343.0089417,0.0003811568895,343.0089417,0.05552112311,343.0089417,0.05403017253,343.0089417,0.05799661949,
341.996582,-4.012139834E-005,341.996582,0.05348917097,341.996582,0.053096544,341.996582,0.05701334774,
340.9840393,7.227963943E-005,340.9840393,0.0529075861,340.9840393,0.05183689296,340.9840393,0.05677550286,
340.0102844,-0.0008702938212,340.0102844,0.05185156688,340.0102844,0.05124671012,340.0102844,0.05575460568,
338.9974976,0.0002550257777,338.9974976,0.05169314891,338.9974976,0.05123960227,338.9974976,0.05545785651,
337.9845581,-0.0001507854759,337.9845581,0.05012289062,337.9845581,0.05031752959,337.9845581,0.05522294715,
337.0104675,0.0001806439686,337.0104675,0.04975085333,337.0104675,0.05014116317,337.0104675,0.05515789986,
335.9972229,0.0001363627962,335.9972229,0.04778342694,335.9972229,0.04860524461,335.9972229,0.05372560397,
334.9839172,-5.6272449E-005,334.9839172,0.04780824855,334.9839172,0.04854896665,334.9839172,0.05397661403,
334.0093994,3.401549475E-005,334.0093994,0.04626461491,334.0093994,0.0478573218,334.0093994,0.05255360901,
332.9957581,-0.0002819619549,332.9957581,0.04664142802,332.9957581,0.04727597907,332.9957581,0.05239604786,
331.9820251,-0.0009075450362,331.9820251,0.04494811222,331.9820251,0.04617406428,331.9820251,0.05183666199,
331.0071411,-3.277040014E-005,331.0071411,0.04549403489,331.0071411,0.0462910533,331.0071411,0.05121152475,
329.993103,-4.835229629E-005,329.993103,0.04437102005,329.993103,0.04549897835,329.993103,0.05092525482,
329.0179749,-0.0001809052337,329.0179749,0.04442343488,329.0179749,0.04481498152,329.0179749,0.05048713088,
328.0036926,0.0003953551059,328.0036926,0.0434654057,328.0036926,0.04493321106,328.0036926,0.05069447309,
326.9892578,-4.835229629E-005,326.9892578,0.04396446422,326.9892578,0.04426784813,326.9892578,0.04986680672,
326.0137329,-1.977642933E-005,326.0137329,0.04293577,326.0137329,0.04327784479,326.0137329,0.04906268418,
324.9990845,-0.0007657045498,324.9990845,0.04203017429,324.9990845,0.0435645543,324.9990845,0.04882637411,
323.9842529,0.000238656532,323.9842529,0.04183712974,323.9842529,0.04329843447,323.9842529,0.0489914231,
323.0083618,0.0003487981448,323.0083618,0.04291619733,323.0083618,0.043715965,323.0083618,0.048593577,
321.9932861,0.0002541192225,321.9932861,0.04188806936,321.9932861,0.04352706671,321.9932861,0.0490286313,
321.0171509,-0.0001440056512,321.0171509,0.04179081693,321.0171509,0.0429424569,321.0171509,0.0486818552,
320.0018311,0.000565121707,320.0018311,0.04152020067,320.0018311,0.04314225167,320.0018311,0.04949229211,
318.9863586,-0.0005722204805,318.9863586,0.04119547457,318.9863586,0.04313885048,318.9863586,0.04814764857,
318.0098267,0.000277948915,318.0098267,0.04156119004,318.0098267,0.0432177633,318.0098267,0.04938931763,
316.9941101,-0.0001254252857,316.9941101,0.04079730809,316.9941101,0.04263160005,316.9941101,0.04851405695,
316.0173645,-0.0004170814645,316.0173645,0.04089462385,316.0173645,0.04372664168,316.0173645,0.05002362654,
315.0014038,0.0002770164283,315.0014038,0.0420046784,315.0014038,0.043880146,315.0014038,0.05053732172,
313.9852905,-0.0001569958986,313.9852905,0.04198366404,313.9852905,0.04469402879,313.9852905,0.05054953694,
313.0081482,-3.344338256E-005,313.0081482,0.04293571413,313.0081482,0.04521599039,313.0081482,0.05200808495,
311.9917908,-0.0002850662568,311.9917908,0.04256578535,311.9917908,0.04625655338,311.9917908,0.05260920897,
311.0144348,-0.0002276850573,311.0144348,0.04483452812,311.0144348,0.04726703092,311.0144348,0.05401721597,
309.9978333,0.0002493534412,309.9978333,0.04561819881,309.9978333,0.04940384999,309.9978333,0.0552608408,
308.9811096,0.0003165194939,308.9811096,0.04770425707,308.9811096,0.05176430196,308.9811096,0.05806508288,
308.0033875,0.0003025570186,308.0033875,0.04978281632,308.0033875,0.05330724269,308.0033875,0.05998895317,
306.9863892,0.000307945098,306.9863892,0.05281662941,306.9863892,0.0566062592,306.9863892,0.06356846541,
306.0084229,0.0003112090344,306.0084229,0.05667880923,306.0084229,0.06100994349,306.0084229,0.06715425104,
304.9912109,0.0003314409405,304.9912109,0.06026406959,304.9912109,0.06426358223,304.9912109,0.07299678028,
304.0130005,0.0003026088234,304.0130005,0.06485433131,304.0130005,0.07244250178,304.0130005,0.07940807939,
302.9955444,0.0003653787717,302.9955444,0.07264967263,302.9955444,0.07890295982,302.9955444,0.08650245517,
302.0171204,0.0005298205069,302.0171204,0.08179870993,302.0171204,0.08729922026,302.0171204,0.09616464376,
300.9994202,0.001192909083,300.9994202,0.09074614197,300.9994202,0.09559427947,300.9994202,0.1057424918,
299.9815674,0.0008635336999,299.9815674,0.1005406305,299.9815674,0.1068448499,299.9815674,0.1171966717,
299.0027771,0.000391183683,299.0027771,0.1120171919,299.0027771,0.1206300482,299.0027771,0.1284040213,
297.9847412,-0.0004976572236,297.9847412,0.1294229925,297.9847412,0.1372694671,297.9847412,0.1452054977,
297.0057373,-0.0004352873075,297.0057373,0.1458851397,297.0057373,0.1507954448,297.0057373,0.1627773046,
295.9873962,-0.0001455582969,295.9873962,0.161661908,295.9873962,0.1717921793,295.9873962,0.1808627695,
295.0081482,0.000466974976,295.0081482,0.1897278726,295.0081482,0.1933678389,295.0081482,0.2028408647,
293.989624,0.0002713438007,293.989624,0.2150943875,293.989624,0.2241871655,293.989624,0.2310591191,
293.0101013,-0.0006825940218,293.0101013,0.245130375,293.0101013,0.2468566,293.0101013,0.2552423775,
291.9913635,0.0004645909066,291.9913635,0.2815511227,291.9913635,0.2870885432,291.9913635,0.2983635068,
291.0116882,0.0003278918739,291.0116882,0.3134552836,291.0116882,0.3140605092,291.0116882,0.3325702548,
289.9926453,0.0004118079669,289.9926453,0.3367311358,289.9926453,0.3463576734,289.9926453,0.3566654027,
289.0127258,0.0002969876805,289.0127258,0.3611134291,289.0127258,0.3687961102,289.0127258,0.3815753162,
287.9935303,-0.0006043273606,287.9935303,0.3780766726,287.9935303,0.3945161402,287.9935303,0.4068140686,
287.0133362,0.0003047588689,287.0133362,0.405893296,287.0133362,0.42734465,287.0133362,0.4431682825,
285.9938965,0.0008314243169,285.9938965,0.4369970858,285.9938965,0.4567955136,285.9938965,0.4745042324,
285.0134888,0.0003557671153,285.0134888,0.4731793404,285.0134888,0.4915083945,285.0134888,0.5199821591,
283.9938354,-0.0001258393459,283.9938354,0.494643122,283.9938354,0.5235080123,283.9938354,0.549670577,
283.0132141,-0.0001744881447,283.0132141,0.5151185989,283.0132141,0.5417372584,283.0132141,0.5861181617,
281.9933167,6.671326264E-005,281.9933167,0.524964869,281.9933167,0.5623227358,281.9933167,0.6102597117,
281.0124817,-0.0001758854196,281.0124817,0.5298583508,281.0124817,0.5845934749,281.0124817,0.6372463703,
279.9923706,-0.0005406800192,279.9923706,0.5361405611,279.9923706,0.5955525041,279.9923706,0.6664503217,
279.011322,3.039118928E-005,279.011322,0.5411263704,279.011322,0.6172514558,279.011322,0.6926314831,
277.9909668,1.32020441E-005,277.9909668,0.5475800633,277.9909668,0.6397702694,277.9909668,0.7346619368,
277.0097046,-0.0002087977919,277.0097046,0.5483207703,277.0097046,0.6584182382,277.0097046,0.7661055326,
275.9891052,-0.0001625334698,275.9891052,0.5449471474,275.9891052,0.6723955274,275.9891052,0.8027181625,
275.0076599,-0.0009953647386,275.0076599,0.5408802032,275.0076599,0.6859642863,275.0076599,0.8342807889,
273.9868774,-0.0002101949649,273.9868774,0.5354523659,273.9868774,0.6967784166,273.9868774,0.8618710637,
273.005188,-0.0005311657442,273.005188,0.5259631276,273.005188,0.7052484155,273.005188,0.887008667,
271.9841309,-1.113082362E-005,271.9841309,0.5149706602,271.9841309,0.7127395868,271.9841309,0.9108562469,
271.0022888,-0.0007294748793,271.0022888,0.50412637,271.0022888,0.717484653,271.0022888,0.9331724048,
269.9810486,-0.001615846995,269.9810486,0.4931042194,269.9810486,0.7234243155,269.9810486,0.9544564486,
268.9989319,-0.001347085345,268.9989319,0.4819334745,268.9989319,0.732145071,268.9989319,0.9824064374,
268.0167847,-0.001040042611,268.0167847,0.4705398679,268.0167847,0.7375840545,268.0167847,1.008692741,
266.9952087,-0.0009209774435,266.9952087,0.4551499486,266.9952087,0.739726007,266.9952087,1.028793097,
266.0127869,-8.945269656E-005,266.0127869,0.4393157959,266.0127869,0.7374822497,266.0127869,1.037527084,
264.9910278,0.001323207631,264.9910278,0.4279229343,264.9910278,0.7357837558,264.9910278,1.044596553,
264.0084229,-0.0002787024423,264.0084229,0.4122056365,264.0084229,0.7300085425,264.0084229,1.049369454,
262.9864502,-0.0009440698777,262.9864502,0.3911624849,262.9864502,0.7169513106,262.9864502,1.043467522,
262.0036316,3.890835433E-005,262.0036316,0.3770133555,262.0036316,0.7061106563,262.0036316,1.040694952,
260.9814148,-0.00119402993,260.9814148,0.3608581126,260.9814148,0.6970114708,260.9814148,1.03346312,
259.9984436,-0.000546160969,259.9984436,0.3503092229,259.9984436,0.6878184676,259.9984436,1.026221037,
259.0153503,-0.001222735154,259.0153503,0.3417872488,259.0153503,0.6807076335,259.0153503,1.020732522,
257.9927979,0.0007266572211,257.9927979,0.3314163089,257.9927979,0.670416832,257.9927979,1.009530306,
257.0095215,-0.0005165319308,257.0095215,0.3154915273,257.0095215,0.6521573067,257.0095215,0.9862468243,
255.9867859,-0.003117722925,255.9867859,0.298920542,255.9867859,0.6292440891,255.9867859,0.9607470036,
255.0032959,0.0005356001784,255.0032959,0.2904664278,255.0032959,0.6158322692,255.0032959,0.9418108463,
253.9803772,-0.002867890755,253.9803772,0.2815200388,253.9803772,0.6014552712,253.9803772,0.9189999104,
252.9966888,-0.002579420339,252.9966888,0.2741097212,252.9966888,0.5870919228,252.9966888,0.8963164091,
252.0129089,3.712206671E-005,252.0129089,0.2738736272,252.0129089,0.5767835975,252.0129089,0.8811594248,
250.9896393,-0.0008200692828,250.9896393,0.2671272159,250.9896393,0.5639961958,250.9896393,0.85886693,
250.0056915,-0.0007015640149,250.0056915,0.2662064135,250.0056915,0.5509685278,250.0056915,0.836730361,
248.9822693,-0.001904957928,248.9822693,0.2654729187,248.9822693,0.5436199307,248.9822693,0.8155791759,
247.9980927,0.0004441195924,247.9980927,0.2744484842,247.9980927,0.5394036174,247.9980927,0.8028414249,
247.0138245,-0.000885897316,247.0138245,0.2856131792,247.0138245,0.5407027602,247.0138245,0.7938879728,
245.990097,-2.593696627E-005,245.990097,0.297542274,245.990097,0.5427014828,245.990097,0.7897071242,
245.0056305,-0.0006305383868,245.0056305,0.3131054342,245.0056305,0.5535335541,245.0056305,0.7878357172,
243.98172,0.0004889504635,243.98172,0.3493852615,243.98172,0.5724143386,243.98172,0.8007973433,
242.9970856,0.0003476323327,242.9970856,0.3904577792,242.9970856,0.6080454588,242.9970856,0.8157561421,
242.0123596,0.0002509074984,242.0123596,0.4249060154,242.0123596,0.6328394413,242.0123596,0.8478876352,
240.9881134,-0.0001180757317,240.9881134,0.4908600152,240.9881134,0.6919787526,240.9881134,0.8923065662,
240.0032196,-0.000454733643,240.0032196,0.5689091682,240.0032196,0.7679921389,240.0032196,0.9471694231,
239.0181732,0.0006655979669,239.0181732,0.67549932,239.0181732,0.8536984921,239.0181732,1.018404961,
237.9937134,0.0001169167663,237.9937134,0.7949439883,237.9937134,0.9659364223,237.9937134,1.121536016,
237.0085297,2.44111543E-005,237.0085297,0.9671381712,237.0085297,1.109426022,237.0085297,1.265869021,
235.9838257,-0.0001795079734,235.9838257,1.131979585,235.9838257,1.298045993,235.9838257,1.480670333,
234.9984131,-0.001041178941,234.9984131,1.330563426,234.9984131,1.480846882,234.9984131,1.629654288,
234.01297,-0.001149212942,234.01297,1.535950184,234.01297,1.72839272,234.01297,1.824822068,
232.9879913,-0.000213506748,232.9879913,1.771381378,232.9879913,1.93734479,232.9879913,2.085309029,
232.0023499,-0.000727459148,232.0023499,2.65593195,232.0023499,2.320111036,232.0023499,2.318086147,
231.0166321,-0.000103945611,231.0166321,2.803600073,231.0166321,2.551573515,231.0166321,2.481287241,
229.991394,-0.001431565266,229.991394,2.825916767,229.991394,2.646996737,229.991394,3.167011738,
229.0054779,-0.00165478792,229.0054779,2.334142208,229.0054779,2.530110121,229.0054779,2.430806875,
228.0194702,0.001087016775,228.0194702,2.938050032,228.0194702,3.229315519,228.0194702,3.212765455,
226.9939423,0.001891224878,226.9939423,3.147171021,226.9939423,2.947589397,226.9939423,3.150942087,
226.0077667,-0.0003738395171,226.0077667,3.384905577,226.0077667,3.143530607,226.0077667,3.340946674,
224.9820862,0.007540959865,224.9820862,2.923951387,224.9820862,3.002147436,224.9820862,3.254098415,
223.9957123,-0.001302335761,223.9957123,3.2224226,223.9957123,3.095068932,223.9957123,3.013032913,
223.0093231,-0.003171742661,223.0093231,2.736776352,223.0093231,3.417652607,223.0093231,3.015420675,
221.9833069,-0.004651508294,221.9833069,2.478016853,221.9833069,2.795540571,221.9833069,3.294180632,
220.9967194,-0.001232079463,220.9967194,2.724281549,220.9967194,2.733042479,220.9967194,2.752323866,
220.010025,-0.006883428432,220.010025,2.421793222,220.010025,2.709682226,220.010025,2.920708895,
218.9837952,-0.01989042759,218.9837952,2.223520756,218.9837952,2.182172298,218.9837952,2.250976563,
217.9969482,-0.02142366953,217.9969482,2.018706083,217.9969482,2.051029205,217.9969482,2.36015749,
217.0099945,-0.0175593365,217.0099945,1.518680096,217.0099945,2.401669741,217.0099945,2.472862482,
215.9835205,0.01305834576,215.9835205,1.823083639,215.9835205,1.886611938,215.9835205,1.92545855,
214.9963989,0.02822110988,214.9963989,1.817545295,214.9963989,2.01944685,214.9963989,1.985617042,
214.0092316,0.01548117492,214.0092316,1.417010069,214.0092316,1.585389733,214.0092316,1.64124012,
212.9824677,-0.04618308693,212.9824677,1.23361063,212.9824677,1.467691779,212.9824677,1.565068364,
211.9951324,0.009785940871,211.9951324,10,211.9951324,1.256774426,211.9951324,1.327509761,
211.0076904,-0.005623248871,211.0076904,1.169455051,211.0076904,1.175343394,211.0076904,0.9198578,
209.9806824,-0.04479015246,209.9806824,0.1754049361,209.9806824,0.6811134815,209.9806824,0.9742258787,
208.9930725,-0.0004599053646,208.9930725,0.3695322573,208.9930725,1.223482609,208.9930725,0.8039318323,
208.0054321,0.1258994043,208.0054321,0.2612318397,208.0054321,0.5945566893,208.0054321,0.68874228,
207.0176544,0.03581991792,207.0176544,-0.3181883395,207.0176544,0.09725490957,207.0176544,0.1553606093,
205.9903259,-0.2366451174,205.9903259,-0.6472599506,205.9903259,-0.05714969337,205.9903259,-0.08992553502,
205.0024109,0.2488611192,205.0024109,-0.0238678176,205.0024109,0.6325372458,205.0024109,0.3428358138,
204.0144501,0.04898823798,204.0144501,10,204.0144501,0.3010688126,204.0144501,0.9498630166,
202.9868317,-0.3509663045,202.9868317,-0.01123642363,202.9868317,-0.3537038863,202.9868317,-0.6318401694,
201.9987183,0.2359010577,201.9987183,0.5623785853,201.9987183,0.5927991271,201.9987183,-0.09678669274,
201.0104828,0.1856797487,201.0104828,0.1047589183,201.0104828,0.8770321608,201.0104828,0.3668383956,
199.9826508,-0.1677780449,199.9826508,10,199.9826508,0.2528722882,199.9826508,0.1800019443,

buffer,
buffer
Collection Time: 03/12/2019 14:45:39
Operator Name  :
Scan Version 5.0.0.999
Parameter List :
Instrument  Cary 60
Instrument Version  2.00
Start (nm)  800.0
Stop (nm)  200.0
X Mode  Nanometers
Y Mode  Abs
UV-Vis Scan Rate (nm/min)  4800.00
UV-Vis Data Interval (nm)  1.00
UV-Vis Ave. Time (sec)  0.0125
Beam Mode  Dual Beam
Baseline Correction  On
Baseline Type  Baseline correction
Baseline File Name
Baseline Std Ref File Name
Cycle Mode  Off
Method Log     :
Method Name    :
Date/Time stamp: 03/12/2019 14:26:57
Method Modifications:
Common Interval nm Changed: 03/12/2019 14:45:16, Old:     5.00, New:     1.00
Baseline Correction Changed: 03/12/2019 14:45:16, Old:0, New:1
Storage Changed: 03/12/2019 14:45:16, Old:1, New:0
End Method Modifications
<Current Wavelength> , 254.0

bm3,
bm3
Collection Time: 03/12/2019 14:47:40
Operator Name  :
Scan Version 5.0.0.999
Parameter List :
Instrument  Cary 60
Instrument Version  2.00
Start (nm)  800.0
Stop (nm)  200.0
X Mode  Nanometers
Y Mode  Abs
UV-Vis Scan Rate (nm/min)  4800.00
UV-Vis Data Interval (nm)  1.00
UV-Vis Ave. Time (sec)  0.0125
Beam Mode  Dual Beam
Baseline Correction  On
Baseline Type  Baseline correction
Baseline File Name
Baseline Std Ref File Name
Cycle Mode  Off
Method Log     :
Method Name    :
Date/Time stamp: 03/12/2019 14:26:57
Method Modifications:
Common Interval nm Changed: 03/12/2019 14:45:16, Old:     5.00, New:     1.00
Baseline Correction Changed: 03/12/2019 14:45:16, Old:0, New:1
Storage Changed: 03/12/2019 14:45:16, Old:1, New:0
End Method Modifications
<Current Wavelength> , 272.0

bm3+NADPH_10mg_ml_2ul,
bm3+NADPH_10mg_ml_2ul
Collection Time: 03/12/2019 14:48:59
Operator Name  :
Scan Version 5.0.0.999
Parameter List :
Instrument  Cary 60
Instrument Version  2.00
Start (nm)  800.0
Stop (nm)  200.0
X Mode  Nanometers
Y Mode  Abs
UV-Vis Scan Rate (nm/min)  4800.00
UV-Vis Data Interval (nm)  1.00
UV-Vis Ave. Time (sec)  0.0125
Beam Mode  Dual Beam
Baseline Correction  On
Baseline Type  Baseline correction
Baseline File Name
Baseline Std Ref File Name
Cycle Mode  Off
Method Log     :
Method Name    :
Date/Time stamp: 03/12/2019 14:26:57
Method Modifications:
Common Interval nm Changed: 03/12/2019 14:45:16, Old:     5.00, New:     1.00
Baseline Correction Changed: 03/12/2019 14:45:16, Old:0, New:1
Storage Changed: 03/12/2019 14:45:16, Old:1, New:0
End Method Modifications
<Current Wavelength> , 292.0

bm3+NADPH_10mg_ml_4ul,
bm3+NADPH_10mg_ml_4ul
Collection Time: 03/12/2019 14:49:44
Operator Name  :
Scan Version 5.0.0.999
Parameter List :
Instrument  Cary 60
Instrument Version  2.00
Start (nm)  800.0
Stop (nm)  200.0
X Mode  Nanometers
Y Mode  Abs
UV-Vis Scan Rate (nm/min)  4800.00
UV-Vis Data Interval (nm)  1.00
UV-Vis Ave. Time (sec)  0.0125
Beam Mode  Dual Beam
Baseline Correction  On
Baseline Type  Baseline correction
Baseline File Name
Baseline Std Ref File Name
Cycle Mode  Off
Method Log     :
Method Name    :
Date/Time stamp: 03/12/2019 14:26:57
Method Modifications:
Common Interval nm Changed: 03/12/2019 14:45:16, Old:     5.00, New:     1.00
Baseline Correction Changed: 03/12/2019 14:45:16, Old:0, New:1
Storage Changed: 03/12/2019 14:45:16, Old:1, New:0
End Method Modifications
<Current Wavelength> , 287.0

