buffer only,,DM full,,
Wavelength (nm),Abs,Wavelength (nm),Abs,
799.9915161,-4.923231972E-005,799.9915161,0.001598679344,
798.9864502,-0.0007090587751,798.9864502,0.001642979914,
798.0155029,-0.0002822206588,798.0155029,0.002177307382,
797.0095825,1.703330054E-005,797.0095825,0.002216151217,
796.0031738,0.0002370248258,796.0031738,0.002518069465,
794.99646,-1.589369458E-005,794.99646,0.002154543996,
793.9892578,-0.0004192020861,793.9892578,0.001607253333,
793.0164795,0.000166634054,793.0164795,0.002347720088,
792.0084839,-9.452526865E-005,792.0084839,0.001892368775,
791.0001831,0.0006412803777,791.0001831,0.002696664538,
789.991394,0.0002025531576,789.991394,0.002052032156,
789.0170898,-2.847363248E-005,789.0170898,0.001857141615,
788.0075073,0.0001008634426,788.0075073,0.001599276904,
786.9974976,8.830601291E-005,786.9974976,0.002105847234,
785.9871826,-0.0008855873602,785.9871826,0.001510845032,
785.0112915,0.0001513816387,785.0112915,0.002210010774,
784.0002441,0.000241816364,784.0002441,0.002311779186,
782.9886475,-0.0004676628741,782.9886475,0.001695393003,
782.0115967,-0.0003523204068,782.0115967,0.001405004994,
780.9993286,-1.568661355E-005,780.9993286,0.001914338558,
779.9866943,7.794964768E-005,779.9866943,0.001800602069,
779.0084839,-5.17719343E-008,779.0084839,0.00149832468,
777.9949951,7.927006664E-005,777.9949951,0.002218362642,
777.0160522,0.0001093561004,777.0160522,0.001879213494,
776.0018921,-5.187238276E-005,776.0018921,0.002272146288,
774.9871826,0.0001069998907,774.9871826,0.001984987175,
774.0071411,-0.0004968815483,774.0071411,0.001811805414,
772.9916992,-0.0003220573126,772.9916992,0.002049613278,
772.0109863,-0.0002418111544,772.0109863,0.002138415119,
770.994812,-0.0003156940511,770.994812,0.002246931894,
770.0132446,-4.985351188E-005,770.0132446,0.001718678162,
768.9963379,-0.000102444581,768.9963379,0.002106419299,
768.0140381,-0.0002630253148,768.0140381,0.002200644463,
766.9963379,2.917446545E-005,766.9963379,0.002233011415,
766.0133667,-0.000258575601,766.0133667,0.002209698549,
764.994873,-0.0001718488202,764.994873,0.002494793385,
764.0111084,-0.0004031162534,764.0111084,0.001708308817,
762.9918823,1.397864798E-005,762.9918823,0.002071929164,
762.0073853,-7.915207971E-005,762.0073853,0.001987977652,
760.9873657,-0.0003826848115,760.9873657,0.001774271368,
760.0022583,5.638329822E-005,760.0022583,0.002544757677,
759.0166626,-3.587647006E-005,759.0166626,0.002484665951,
757.9954834,6.031472367E-006,757.9954834,0.002393867122,
757.0092163,0.0001528835564,757.0092163,0.002678145422,
755.9873657,-0.0001109848527,755.9873657,0.002182146534,
755.0003052,-1.692909245E-005,755.0003052,0.002185242483,
754.0128784,0.0003550417023,754.0128784,0.002736362163,
752.9899292,-9.007383051E-005,752.9899292,0.002339209663,
752.00177,-0.0001249594789,752.00177,0.002528640442,
751.0133667,0.0001393147395,751.0133667,0.002436973387,
749.9891968,0.0003933082335,749.9891968,0.0025904309,
749,-6.93688562E-005,749,0.002240192844,
748.010437,-0.0004424246144,748.010437,0.002492918866,
746.9852295,-3.484111585E-005,746.9852295,0.002485134639,
745.9949951,-0.0003280066303,745.9949951,0.002239412162,
745.0043945,1.692975275E-005,745.0043945,0.002470269101,
744.0134277,-0.0001144526686,744.0134277,0.002716330579,
742.9867554,0.0002289181721,742.9867554,0.002670461778,
741.9950562,-0.0001223716099,741.9950562,0.002197470283,
741.0029907,-0.0001535284246,741.0029907,0.002133134287,
740.0106201,-0.0001820437465,740.0106201,0.002275581239,
738.9824219,8.967825124E-005,738.9824219,0.00262441556,
737.9893799,0.0001766817877,737.9893799,0.002364247106,
736.9959106,3.375661618E-005,736.9959106,0.002662491985,
736.0020752,8.519907715E-005,736.0020752,0.002622826956,
735.0079956,7.743183232E-005,735.0079956,0.002740191529,
734.0135498,0.0001055240282,734.0135498,0.002634363947,
732.9831543,-6.113835116E-005,732.9831543,0.002247192198,
731.9879761,4.44484831E-005,731.9879761,0.002680202946,
730.9924927,-0.000234360079,730.9924927,0.002179076429,
729.996582,1.087212013E-006,729.996582,0.002454024507,
729.0003052,3.984033174E-005,729.0003052,0.002224243013,
728.0037842,-0.0002937063982,728.0037842,0.002231242135,
727.0068359,-3.375398956E-005,727.0068359,0.002498854883,
726.0096436,-3.80507081E-005,726.0096436,0.002439055825,
725.0120239,-0.0002111781505,725.0120239,0.002486670623,
724.0140991,-0.0001414696599,724.0140991,0.002451238921,
723.0157471,-0.000100167148,723.0157471,0.002340875333,
722.0172119,-0.0001174546414,722.0172119,0.002364325104,
720.9824829,-0.0001787834626,720.9824829,0.002405137988,
719.9832153,-2.981961188E-005,719.9832153,0.002650589449,
718.9835815,-3.830954302E-005,718.9835815,0.00258280104,
717.9835815,-0.0002101432183,717.9835815,0.002470711712,
716.9832153,3.02099761E-005,716.9832153,0.00231269002,
715.9825439,1.035451078E-005,715.9825439,0.002640666673,
715.0172729,-0.0002208029473,715.0172729,0.002425051061,
714.0159302,-0.0001310667576,714.0159302,0.002749152714,
713.0142822,-0.0002654053678,713.0142822,0.002525125397,
712.012207,-0.0001840619952,712.012207,0.002494767541,
711.0098267,9.685020632E-005,711.0098267,0.002637619385,
710.0072021,7.248131624E-006,710.0072021,0.002744541969,
709.0041504,3.173735604E-005,709.0041504,0.002653636737,
708.0007935,8.328314289E-005,708.0007935,0.002687808592,
706.9970703,-0.0003124347713,706.9970703,0.002400738886,
705.993103,1.183004861E-005,705.993103,0.002667570719,
704.9887085,-0.000303691515,704.9887085,0.002641083207,
703.9840088,-0.000229754849,703.9840088,0.002732793335,
703.0148926,-0.0003971162369,703.0148926,0.002492424333,
702.0095215,-0.0001024963422,702.0095215,0.002638530917,
701.0038452,-0.0001748504001,701.0038452,0.002568999771,
699.9978027,-0.000382633094,699.9978027,0.002576265018,
698.9914551,2.666262844E-006,698.9914551,0.002646135865,
697.9848022,2.09422542E-005,697.9848022,0.002747511491,
697.0137329,4.778812581E-005,697.0137329,0.002699972596,
696.0064697,-5.575479736E-005,696.0064697,0.002810661914,
694.9987793,4.434492803E-005,694.9987793,0.00257342658,
693.9908447,-0.0002579546999,693.9908447,0.00256931223,
692.9825439,-0.0001347414509,692.9825439,0.00267340499,
692.0098877,-0.0002158870775,692.0098877,0.00260842545,
691.0009155,7.287511835E-005,691.0009155,0.003127203556,
689.9916382,3.652663872E-005,689.9916382,0.002772442298,
688.9821167,6.464207399E-005,688.9821167,0.002931699855,
688.0081787,-6.92653266E-005,688.0081787,0.002689371351,
686.9979248,9.783409041E-005,686.9979248,0.002847321564,
685.9873657,0.0003698608489,685.9873657,0.002926539863,
685.0126343,-0.0002609039366,685.0126343,0.002970741363,
684.0014038,7.76579725E-007,684.0014038,0.002981245285,
682.9898682,0.0001980469242,682.9898682,0.002906447276,
682.0141602,-0.0002095222444,682.0141602,0.002920207102,
681.0020142,-3.924135672E-005,681.0020142,0.002982365899,
679.989502,3.875302355E-005,679.989502,0.002852116013,
679.0128784,-0.0002115921234,679.0128784,0.002695205854,
677.9997559,-0.0003001734731,677.9997559,0.002737847157,
676.9863281,0.0001605485595,676.9863281,0.002798468806,
676.0087891,0.0001568196167,676.0087891,0.002628374146,
674.9946899,3.7251506E-005,674.9946899,0.003021047218,
674.0166016,-9.87178646E-005,674.0166016,0.00292943255,
673.0018921,-8.665757923E-005,673.0018921,0.002921510022,
671.9868774,0.0001444159425,671.9868774,0.003248851281,
671.0078125,-0.0002896191727,671.0078125,0.00316232536,
669.9921875,-0.0001427635289,669.9921875,0.002896779217,
669.0124512,0.0004103310639,669.0124512,0.002939283848,
667.9962158,-0.0002693893621,667.9962158,0.003037078539,
667.0159912,4.812468251E-005,667.0159912,0.003446298419,
665.9991455,5.74706537E-005,665.9991455,0.003316795919,
664.9818726,0.0001878692128,664.9818726,0.003164594062,
664.0007324,-6.885121547E-005,664.0007324,0.002788047772,
662.9829712,0.0001922976517,662.9829712,0.003364950418,
662.0012207,0.0001333073014,662.0012207,0.003120607231,
660.9827271,-0.0001231997303,660.9827271,0.003121128771,
660.0004272,9.464941104E-005,660.0004272,0.003198388964,
659.0178223,-2.236490036E-005,659.0178223,0.003166184528,
657.9984131,0.0001527281856,657.9984131,0.003270237707,
657.0151978,0.000144312362,657.0151978,0.003382820636,
655.9952393,-1.449611773E-006,655.9952393,0.003187254071,
655.0114746,0.0002174965921,655.0114746,0.003700484755,
653.9909058,0.0002364550164,653.9909058,0.003480219515,
653.0064697,-0.0001555468043,653.0064697,0.003451673314,
651.9853516,6.989773829E-005,651.9853516,0.003393647494,
651.0003052,-0.0002062621788,651.0003052,0.003290973138,
650.0151367,-8.562234143E-005,650.0151367,0.003525678068,
648.992981,-0.0002107641776,648.992981,0.003362263553,
648.0072021,2.66374791E-005,648.0072021,0.003573490307,
646.9844971,-0.000192083171,646.9844971,0.003480741521,
645.9980469,-7.449342957E-005,645.9980469,0.003373533254,
645.0113525,1.884539415E-005,645.0113525,0.003397352062,
643.987793,0.0002154505783,643.987793,0.003714556806,
643.0004883,-8.034261555E-005,643.0004883,0.003677406348,
642.0129395,-4.182970952E-005,642.0129395,0.003481341526,
640.9884644,0.0002915997757,640.9884644,0.003977782559,
640.0003052,-6.848887278E-005,640.0003052,0.003410631791,
639.0119019,-0.0001684849703,639.0119019,0.003346089739,
637.9865112,-0.0001781624596,637.9865112,0.003481941763,
636.9975586,-0.0001969475561,636.9975586,0.003816939658,
636.0082397,-4.384861677E-005,636.0082397,0.003640311072,
634.9820557,-0.0002184743789,634.9820557,0.0036617429,
633.9921265,-5.730775229E-005,633.9921265,0.003774871351,
633.0020142,-0.0002056929516,633.0020142,0.003624257632,
632.0115967,-2.826655691E-005,632.0115967,0.003692313097,
630.9841919,0.0001763710316,630.9841919,0.003658036003,
629.9932251,-0.0001265639439,629.9932251,0.003688423196,
629.0020142,0.0003332284396,629.0020142,0.00385517301,
628.010498,-6.983472849E-005,628.010498,0.003720117966,
626.9819336,0.0001855125738,626.9819336,0.003932171967,
625.9898071,0.0001051097497,625.9898071,0.003801114624,
624.9974365,-0.0001370704558,624.9974365,0.003975404892,
624.0047607,6.244144606E-005,624.0047607,0.003905502846,
623.0119019,-0.000141521421,623.0119019,0.003754478414,
621.9819336,0.00017950451,621.9819336,0.003886096179,
620.9884644,-0.0002136619878,620.9884644,0.003815059317,
619.9946899,-0.0001892369619,619.9946899,0.004000850488,
619.0006714,-0.0001436433668,619.0006714,0.003951737192,
618.0064087,0.0001700782304,618.0064087,0.004272196908,
617.0117798,0.0001278437267,617.0117798,0.004027604125,
616.0169678,-0.0002077628451,616.0169678,0.004003411159,
614.9850464,-9.390414198E-005,614.9850464,0.004027865361,
613.989624,0.0002300577471,613.989624,0.004294365644,
612.9938965,-6.615949678E-005,612.9938965,0.004026167095,
611.9980469,-3.013022251E-005,611.9980469,0.004279176705,
611.0018311,-8.520824485E-005,611.0018311,0.004442884587,
610.0054321,-0.0001100531954,610.0054321,0.004474713001,
609.008606,-9.566399967E-005,609.008606,0.004315646831,
608.0116577,-0.0002012426557,608.0116577,0.004473091103,
607.0144043,-0.0002449674648,607.0144043,0.004350184929,
606.0169067,-2.78524094E-005,606.0169067,0.004822099116,
604.9821167,-5.21829752E-005,604.9821167,0.004731831141,
603.9840088,-0.0002217343572,603.9840088,0.004815058317,
602.9857178,3.709617522E-005,602.9857178,0.004946526606,
601.9870605,-5.399477232E-005,601.9870605,0.00502584083,
600.9881592,-3.416813342E-005,600.9881592,0.005135212559,
599.9890137,-0.0002195092966,599.9890137,0.00501015503,
598.989624,-0.0001108295764,598.989624,0.005675666034,
597.9899902,-4.353801705E-005,597.9899902,0.005582598504,
596.9899902,-6.517597649E-005,596.9899902,0.005774158053,
595.9899292,2.190008126E-005,595.9899292,0.005908410065,
594.9893799,-7.816858852E-005,594.9893799,0.006004434545,
593.9887085,0.0002247224475,593.9887085,0.006324968301,
592.9877319,7.124403055E-005,592.9877319,0.006287147291,
591.9864502,-0.0001941531227,591.9864502,0.006429387257,
590.9849854,5.902040812E-006,590.9849854,0.007042536512,
589.9832153,-2.868070624E-005,589.9832153,0.006994708907,
589.0183105,-9.385238081E-005,589.0183105,0.007006652188,
588.0160522,4.320582957E-005,588.0160522,0.007179655135,
587.0135498,-6.931708776E-005,587.0135498,0.007198472507,
586.0107422,2.503245196E-005,586.0107422,0.007386770099,
585.0076904,1.208891535E-005,585.0076904,0.007663270924,
584.0043945,-6.175952876E-005,584.0043945,0.007626228966,
583.0008545,-0.0003434744722,583.0008545,0.007894130424,
581.9970093,-0.0002677336743,581.9970093,0.007998926565,
580.992981,-0.0003283687693,580.992981,0.008205061778,
579.9886475,-0.0003180738131,579.9886475,0.008212606423,
578.9840698,-5.534067532E-005,578.9840698,0.008313996717,
578.0164795,-3.214918252E-005,578.0164795,0.008533691987,
577.0114136,-0.0002278920292,577.0114136,0.008531078696,
576.0060425,-0.0001280131255,576.0060425,0.008866270073,
575.0004883,-7.459695189E-005,575.0004883,0.008755848743,
573.9946899,-0.0001064300595,573.9946899,0.008926484734,
572.9885254,8.338670887E-005,572.9885254,0.00912039727,
571.9821777,-2.852540092E-005,571.9821777,0.009095338173,
571.0129395,-5.937835158E-005,571.0129395,0.009133826941,
570.0061035,3.155614104E-005,570.0061035,0.009313260205,
568.9990234,-0.0002183708857,568.9990234,0.00912330579,
567.9916992,3.197034675E-005,567.9916992,0.009209467098,
566.9840698,-0.0001284271857,566.9840698,0.00929630734,
566.0135498,-0.0001786282082,566.0135498,0.00954528898,
565.0054932,-0.0002347740374,565.0054932,0.009403744712,
563.9971924,-0.0003090202808,563.9971924,0.009449033998,
562.9885864,-8.236134454E-005,562.9885864,0.009673327208,
562.0171509,-0.000130497443,562.0171509,0.009736566804,
561.0081177,-0.0001163159613,561.0081177,0.009978992864,
559.9988403,-0.0002223035553,559.9988403,0.009884442203,
558.9892578,-1.75503319E-005,558.9892578,0.01001398452,
558.0168457,6.453851529E-005,558.0168457,0.01030949969,
557.006897,-0.0001231997303,557.006897,0.0101259714,
555.996582,-8.189547952E-005,555.996582,0.01026565768,
554.9860229,-0.0001692612423,554.9860229,0.0101668844,
554.0127563,1.744749352E-005,554.0127563,0.01056312025,
553.00177,-2.878424311E-005,553.00177,0.0105913952,
551.9905396,-3.737772931E-005,551.9905396,0.01059887558,
551.0164795,-7.407932571E-005,551.0164795,0.01077493466,
550.0047607,-0.0001959643268,550.0047607,0.01080967207,
548.9928589,-2.717941607E-005,548.9928589,0.01089019608,
548.0180054,7.243498112E-005,548.0180054,0.01103254501,
547.0056152,-6.817829126E-005,547.0056152,0.01110246219,
545.992981,-0.0001064300595,545.992981,0.01103464235,
545.0176392,-5.932658678E-005,545.0176392,0.01110360399,
544.0044556,-0.0001385713695,544.0044556,0.01111332327,
542.9910889,-0.0002468819439,542.9910889,0.01105822157,
542.0150146,-0.0001092250532,542.0150146,0.01115679927,
541.0010986,-3.111382102E-005,541.0010986,0.01090742368,
539.9869995,-9.349005268E-005,539.9869995,0.01093773823,
539.0102539,-0.0001108813303,539.0102539,0.01108620968,
537.9957275,-9.747561853E-005,537.9957275,0.01123292558,
537.0184937,-0.0001052913576,537.0184937,0.01103400532,
536.00354,-4.9491151E-005,536.00354,0.01099903788,
534.9882813,-2.780064096E-005,534.9882813,0.01109693851,
534.010437,-0.0001196802259,534.010437,0.01101438329,
532.9946899,-9.4318224E-005,532.9946899,0.0108134402,
532.0163574,-7.84274016E-005,532.0163574,0.01096285135,
531.0001831,-6.087953079E-005,531.0001831,0.01106462069,
529.9837646,-0.0001303421741,529.9837646,0.01091761608,
529.0047607,-6.854063395E-005,529.0047607,0.01092465129,
527.987915,4.455203816E-005,527.987915,0.01073160302,
527.0084839,-4.022493158E-005,527.0084839,0.01093240269,
525.9910889,-6.155246956E-005,525.9910889,0.01071547065,
525.0112915,-3.12691227E-005,525.0112915,0.01087055448,
523.9934692,8.645999515E-006,523.9934692,0.0110019045,
523.0132446,-8.189547952E-005,523.0132446,0.0108788358,
521.9949951,0.0001178230232,521.9949951,0.0110549815,
521.0142822,-3.359868788E-005,521.0142822,0.01098109037,
519.9956055,-9.053968097E-005,519.9956055,0.01103992667,
519.0144043,-0.0001569958986,519.0144043,0.01095478144,
517.9952393,3.79246012E-005,517.9952393,0.01103958115,
517.0136719,-7.475224265E-005,517.0136719,0.01117733028,
515.9941406,-5.368417987E-005,515.9941406,0.01111494377,
515.012085,0.0003732289188,515.012085,0.01164085139,
513.9920654,5.045468424E-005,513.9920654,0.01119146124,
513.0095825,-2.743826008E-005,513.0095825,0.01141110249,
511.9890747,-1.019895171E-005,511.9890747,0.01166558079,
511.0062561,-0.000220181988,511.0062561,0.0117556788,
509.9853821,3.339418254E-005,509.9853821,0.01185814012,
509.0020142,-6.357128586E-005,509.0020142,0.01183582097,
508.0185547,-0.0001299798751,508.0185547,0.01203540154,
506.9969482,-0.0001667771576,506.9969482,0.01195399929,
506.0130615,-2.101889731E-005,506.0130615,0.01235016622,
504.9910889,-2.371089977E-005,504.9910889,0.01235336158,
504.0066528,-0.0001461793436,504.0066528,0.01259730756,
502.9842834,-7.382050535E-005,502.9842834,0.01289199945,
501.9995117,-0.00021164387,501.9995117,0.01307459176,
501.0144958,-0.000155805581,501.0144958,0.01315809973,
499.9914551,-0.0001376397704,499.9914551,0.01360279974,
499.0060425,6.575533916E-005,499.0060425,0.01370906364,
497.9825745,-0.0001127446449,497.9825745,0.0138884997,
496.9967957,6.547055091E-005,496.9967957,0.01405822393,
496.0107117,-0.0001757819118,496.0107117,0.014578823,
494.9865417,-0.0001432293211,494.9865417,0.01486278139,
494.0000916,-4.250268103E-005,494.0000916,0.01505336072,
493.0135193,-7.656394155E-005,493.0135193,0.01531826891,
491.988739,-3.054533408E-006,491.988739,0.01577482373,
491.0016785,4.874601291E-005,491.0016785,0.01584972441,
490.0144348,1.768047696E-005,490.0144348,0.01616879739,
488.9890442,-0.0002531945065,488.9890442,0.01649921015,
488.0014038,-4.00696299E-005,488.0014038,0.0170508232,
487.0135803,-1.019895171E-005,487.0135803,0.01688748971,
485.9874878,-0.0001483530359,485.9874878,0.01723390818,
484.9992371,-0.000272648962,484.9992371,0.01790151931,
484.0108337,-7.0973525E-005,484.0108337,0.01821791939,
482.9841309,-0.0001329299848,482.9841309,0.01838588715,
481.9953308,9.281111124E-005,481.9953308,0.01872761361,
481.0062866,-0.0001247524488,481.0062866,0.01897949353,
480.0170288,1.58683888E-005,480.0170288,0.01938664354,
478.9895325,-9.659569332E-005,478.9895325,0.01938591339,
477.999939,-0.0001761959284,477.999939,0.0200033579,
477.0100708,-0.0001192661657,477.0100708,0.02020542696,
475.9819946,-3.603177174E-005,475.9819946,0.02046473324,
474.9916992,-1.708470563E-006,474.9916992,0.0208550822,
474.0012817,-3.473757897E-005,474.0012817,0.02114333771,
473.0107117,-4.478041592E-005,473.0107117,0.02133212611,
471.9817505,8.024657632E-007,471.9817505,0.02169802971,
470.9907532,-0.000248020282,470.9907532,0.02199084871,
469.9995728,-1.475475165E-005,469.9995728,0.02254856005,
469.0081177,2.498067806E-005,469.0081177,0.02274895273,
468.016571,-2.588596146E-007,468.016571,0.02323788777,
466.9866638,8.723658539E-006,466.9866638,0.02373355255,
465.9946899,-2.428035987E-005,465.9946899,0.02401114069,
465.0025635,8.00726848E-005,465.0025635,0.02442114986,
464.0101929,-8.903859998E-005,464.0101929,0.02488940954,
463.0176697,-0.0001392441918,463.0176697,0.02530502155,
461.9867554,-1.33569547E-005,461.9867554,0.02606786601,
460.993866,0.0001254874223,460.993866,0.02668168023,
460.0006714,-3.214918252E-005,460.0006714,0.02705925517,
459.0073853,-2.645465429E-005,459.0073853,0.02741308883,
458.0138855,-8.484591672E-005,458.0138855,0.02794849128,
456.9819946,-0.0002026398433,456.9819946,0.02875496633,
455.9881287,-0.000101047066,455.9881287,0.029300889,
454.9940796,2.246960139E-005,454.9940796,0.03010910377,
453.9998169,4.499214265E-005,453.9998169,0.03102265671,
453.0054016,-0.0001245971798,453.0054016,0.03167849034,
452.0108337,-0.0002988283231,452.0108337,0.03245100379,
451.0160217,-0.0001945153781,451.0160217,0.03337643296,
449.9827881,-0.000175833673,449.9827881,0.03457966447,
448.9876099,7.636427654E-006,448.9876099,0.0357972607,
447.9922791,-0.0001165747526,447.9922791,0.03667484224,
446.9966736,-0.000317970349,446.9966736,0.03779727593,
446.0010071,-5.787716873E-005,446.0010071,0.03919712082,
445.0050659,-7.169821038E-005,445.0050659,0.04057303816,
444.0089722,5.441571557E-005,444.0089722,0.04219622537,
443.0127258,-0.0001674499363,443.0127258,0.0438375324,
442.0162964,-0.0001010988271,442.0162964,0.04551269114,
440.9813538,1.483291271E-005,440.9813538,0.04747896269,
439.9844971,-0.0001973097969,439.9844971,0.04967907444,
438.9875183,9.395033703E-005,438.9875183,0.05194917321,
437.990387,-0.000277615909,437.990387,0.05382923037,
436.992981,-0.0003451816156,436.992981,0.05603656545,
435.9954834,-0.0001738671272,435.9954834,0.05842550844,
434.9977722,-0.0003153836296,434.9977722,0.06054978073,
433.999939,5.545128442E-005,433.999939,0.0629959181,
433.0018311,-5.798417988E-006,433.0018311,0.06504669785,
432.0036011,-0.0002291856508,432.0036011,0.06682630628,
431.0052185,7.765859664E-006,431.0052185,0.06890172511,
430.0065613,2.065749322E-005,430.0065613,0.07070311159,
429.0078735,-0.0001623264543,429.0078735,0.07159334421,
428.0089111,-6.781594129E-005,428.0089111,0.07307447493,
427.0098267,-0.0001547187567,427.0098267,0.07384245098,
426.010498,-0.0001017717004,426.010498,0.07421059906,
425.0110474,-7.972146705E-005,425.0110474,0.07412612438,
424.0114441,-6.631478755E-005,424.0114441,0.07374099642,
423.0116577,-9.110905376E-005,423.0116577,0.07282369584,
422.0116577,-0.0001678639383,422.0116577,0.07170841098,
421.0115051,-9.338653035E-005,421.0115051,0.07059772313,
420.0112,-0.0003307484731,420.0112,0.06887281686,
419.0106506,-8.489767788E-005,419.0106506,0.06736405194,
418.0100098,6.19495404E-005,418.0100098,0.06572262198,
417.0091553,-9.173018043E-005,417.0091553,0.06398540735,
416.0081787,-0.0001340168674,416.0081787,0.06206944585,
415.006958,-0.0001515617769,415.006958,0.06024700031,
414.0056458,-9.851081995E-005,414.0056458,0.05856814981,
413.0041199,-0.0001157983861,413.0041199,0.05683459714,
412.0024414,-4.514278407E-005,412.0024414,0.05528077483,
411.0005798,-9.292068717E-005,411.0005798,0.05378044769,
409.9985657,-7.558045036E-005,409.9985657,0.05245852098,
408.9964294,-0.0001412626443,408.9964294,0.05098062009,
407.9940491,-0.0002352397278,407.9940491,0.04959633946,
406.9915161,-0.0002284094808,406.9915161,0.04838347435,
405.9888611,3.916723654E-005,405.9888611,0.04762963578,
404.9859619,3.150436532E-005,404.9859619,0.04660353065,
403.9829712,-8.44835813E-005,403.9829712,0.04561385885,
403.0183716,-3.546232983E-005,403.0183716,0.04473612085,
402.0150452,-0.0002465714933,402.0150452,0.04403980449,
401.0115662,-0.0002188883518,401.0115662,0.04330215231,
400.0078735,7.240908599E-005,400.0078735,0.04286725074,
399.0040588,-2.547104668E-005,399.0040588,0.04228977859,
398.000061,-0.0002824793337,398.000061,0.04167491943,
396.9959106,-0.0003212295705,396.9959106,0.04125106335,
395.9915771,-0.0004710761423,395.9915771,0.04092306644,
394.9870605,-0.0002867736039,394.9870605,0.04059270397,
393.9824219,-0.000125166509,393.9824219,0.04037581384,
393.0162964,-0.0004123747349,393.0162964,0.04001143575,
392.0113525,-0.0002119543497,392.0113525,0.04043626785,
391.0062561,-0.0003703737748,391.0062561,0.04019838572,
390.0009766,4.838356836E-005,390.0009766,0.04043001682,
388.9955444,-0.0004153746413,388.9955444,0.04038098454,
387.9899292,-0.0004944510292,387.9899292,0.04059131071,
386.9842224,-9.3593575E-005,386.9842224,0.04056456685,
386.0169678,-0.0002112816437,386.0169678,0.04086908326,
385.0109253,-0.0003121760965,385.0109253,0.04111749679,
384.0046692,-0.0002724937513,384.0046692,0.04147440195,
382.9983215,-0.0001574099297,382.9983215,0.04189203307,
381.9917603,-0.0001628439786,381.9917603,0.04210805893,
380.9851074,-0.0001645000593,380.9851074,0.0425363481,
380.0169983,-0.0001928594138,380.0169983,0.04288396612,
379.0099792,-0.0003064335033,379.0099792,0.04322453961,
378.0028687,5.87392351E-005,378.0028687,0.04428134859,
376.9955444,-0.0006312621408,376.9955444,0.04421688616,
375.9880981,-0.0005834917538,375.9880981,0.04465185478,
375.0192566,-0.0003194706223,375.0192566,0.04506405443,
374.0115051,-0.0003838745179,374.0115051,0.04564689845,
373.0035706,-0.0002608004725,373.0035706,0.04623927549,
371.9955444,-0.0003578554606,371.9955444,0.04706486687,
370.9873352,-0.0002650431998,370.9873352,0.04735893756,
370.0177307,-0.0003849607601,370.0177307,0.04807112738,
369.0092468,-0.0001340168674,369.0092468,0.04847524315,
368.0005798,-0.000256557687,368.0005798,0.04906062782,
366.9917908,-0.0003840296995,366.9917908,0.04956253245,
365.9828186,-0.0001248559565,365.9828186,0.05006112903,
365.0125122,-0.0003952541447,365.0125122,0.0505907461,
364.0032959,-0.0002988283231,364.0032959,0.05083753541,
362.993866,-0.0003735291539,362.993866,0.05125798285,
361.984314,-0.0004628015158,361.984314,0.05196810886,
361.0134277,-9.442174633E-005,361.0134277,0.0521662347,
360.0036621,-0.0002237524313,360.0036621,0.05232648551,
358.9936218,-0.0003331281478,358.9936218,0.05236366019,
357.9835205,-5.746304669E-005,357.9835205,0.05291384459,
357.0121155,-8.44835813E-005,357.0121155,0.0529984422,
356.0016785,-0.0003118139575,356.0016785,0.0533606261,
354.9911194,-0.0001405380608,354.9911194,0.05337055027,
354.0192871,-9.913194663E-005,354.0192871,0.05369446427,
353.0084534,-3.908605504E-005,353.0084534,0.05399716273,
351.9974365,2.692224189E-005,351.9974365,0.05395246297,
350.9863281,9.565919026E-005,350.9863281,0.0539259091,
350.0139465,-0.0002258222376,350.0139465,0.05388277024,
349.002533,-1.827510823E-005,349.002533,0.0538421534,
347.9909973,-1.10272822E-005,347.9909973,0.0540701896,
347.0181885,-0.00029117128,347.0181885,0.05394906178,
346.0063477,-0.000179352719,346.0063477,0.05405409262,
344.9943848,5.255169526E-005,344.9943848,0.05412683636,
343.9822693,-0.0002539188717,343.9822693,0.05370081961,
343.0089417,-0.0002352914744,343.0089417,0.05373096466,
341.996582,-9.669920837E-005,341.996582,0.05378115177,
340.9840393,-0.0001120717789,340.9840393,0.05383682251,
340.0102844,-0.0002669575915,340.0102844,0.05395685881,
338.9974976,-0.0003903919715,338.9974976,0.05365700275,
337.9845581,-0.0001007882674,337.9845581,0.05401955917,
337.0104675,0.0001842695201,337.0104675,0.05395932123,
335.9972229,-2.790417784E-005,335.9972229,0.05390800163,
334.9839172,-1.382288701E-005,334.9839172,0.05393288285,
334.0093994,-9.111765394E-006,334.0093994,0.05371329933,
332.9957581,-0.0001682779548,332.9957581,0.05384183303,
331.9820251,8.123776934E-005,331.9820251,0.05394273251,
331.0071411,-0.0002218378504,331.0071411,0.05353938788,
329.993103,0.0001827416127,329.993103,0.05369519815,
329.0179749,0.0002886467846,329.0179749,0.05390961468,
328.0036926,3.028668743E-006,328.0036926,0.05385202914,
326.9892578,0.0002148290077,326.9892578,0.05409314483,
326.0137329,0.0001408684038,326.0137329,0.05435727909,
324.9990845,0.0002234274871,324.9990845,0.05472511798,
323.9842529,9.67207452E-005,323.9842529,0.05487630144,
323.0083618,-0.0004727827618,323.0083618,0.05520751327,
321.9932861,-0.000288480951,321.9932861,0.05573038384,
321.0171509,-0.0005057760281,321.0171509,0.05606369302,
320.0018311,-0.0007043035002,320.0018311,0.0564677678,
318.9863586,-0.0007171219913,318.9863586,0.05748230591,
318.0098267,-0.0002464680001,318.0098267,0.05823187903,
316.9941101,0.0001170980177,316.9941101,0.0593018271,
316.0173645,-0.0001362423645,316.0173645,0.06033771113,
315.0014038,-0.0003234023752,315.0014038,0.06166331843,
313.9852905,-0.0003735291539,313.9852905,0.06321872026,
313.0081482,-0.0003877022536,313.0081482,0.06535461545,
311.9917908,0.0001086311095,311.9917908,0.06777472794,
311.0144348,-0.0003927196085,311.0144348,0.07006267458,
309.9978333,0.000197244095,309.9978333,0.072973378,
308.9811096,-0.0002820654481,308.9811096,0.07734960318,
308.0033875,-0.0001191626507,308.0033875,0.0817162171,
306.9863892,-0.0003110896796,306.9863892,0.08787146956,
306.0084229,-0.0003089685342,306.0084229,0.09654610604,
304.9912109,0.0001776140562,304.9912109,0.1060844436,
304.0130005,-0.0004354942066,304.0130005,0.1169073209,
302.9955444,-1.076842909E-005,302.9955444,0.1326946765,
302.0171204,0.0002544559538,302.0171204,0.1507629901,
300.9994202,9.542616317E-005,300.9994202,0.1728057712,
299.9815674,0.0002812903549,299.9815674,0.1978438646,
299.0027771,-0.0004103058018,299.0027771,0.232799232,
297.9847412,-0.0002391205053,297.9847412,0.2682838738,
297.0057373,0.0001150006938,297.0057373,0.307406038,
295.9873962,-0.0001358283189,295.9873962,0.35647434,
295.0081482,-0.0001332405227,295.0081482,0.423510313,
293.989624,-0.0001115024352,293.989624,0.494682163,
293.0101013,-0.0001288412313,293.0101013,0.5640732646,
291.9913635,0.000108993605,291.9913635,0.6607095003,
291.0116882,-0.0001089662546,291.0116882,0.7435206175,
289.9926453,-0.0002555746178,289.9926453,0.8326742053,
289.0127258,-0.0001288412313,289.0127258,0.9090230465,
287.9935303,0.0003042407916,287.9935303,0.9918728471,
287.0133362,-0.0003493717813,287.0133362,1.097066164,
285.9938965,0.0002917292877,285.9938965,1.196565509,
285.0134888,0.0001358708105,285.0134888,1.292273641,
283.9938354,-7.858269237E-005,283.9938354,1.384074688,
283.0132141,0.0003326844308,283.0132141,1.486151099,
281.9933167,0.0006412803777,281.9933167,1.577064395,
281.0124817,-0.0001898062037,281.0124817,1.665530562,
279.9923706,6.756290077E-006,279.9923706,1.755099773,
279.011322,0.0004061076907,279.011322,1.835777402,
277.9909668,-4.571221507E-005,277.9909668,1.933617234,
277.0097046,0.0002816011838,277.0097046,2.031660318,
275.9891052,0.0002339427156,275.9891052,2.118534088,
275.0076599,0.000369627669,275.0076599,2.188721895,
273.9868774,0.000225732525,273.9868774,2.300659418,
273.005188,-0.0001873222354,273.005188,2.374919176,
271.9841309,0.0004704733437,271.9841309,2.453939199,
271.0022888,0.0002805909899,271.0022888,2.518764734,
269.9810486,0.0004263958253,269.9810486,2.564590693,
268.9989319,3.065006968E-005,268.9989319,2.623702526,
268.0167847,0.0006798832328,268.0167847,2.706117392,
266.9952087,-2.329730933E-006,266.9952087,2.743088007,
266.0127869,0.000282999943,266.0127869,2.717180729,
264.9910278,-1.025072288E-005,264.9910278,2.855633259,
264.0084229,0.0005324641243,264.0084229,2.81667614,
262.9864502,-0.0001991209865,262.9864502,2.862027884,
262.0036316,0.0001500351063,262.0036316,2.967257023,
260.9814148,-0.0001360870956,260.9814148,2.981479645,
259.9984436,-0.0005420244415,259.9984436,3.031339884,
259.0153503,1.141586199E-005,259.0153503,2.996467113,
257.9927979,0.0004850891128,257.9927979,3.01736021,
257.0095215,8.442234684E-005,257.0095215,2.932984591,
255.9867859,-0.0006987728411,255.9867859,3.022144794,
255.0032959,-0.0004772302636,255.0032959,2.924990654,
253.9803772,-0.0008043600246,253.9803772,3.012903452,
252.9966888,0.0004676228273,252.9966888,3.003055811,
252.0129089,-0.0005675671273,252.0129089,2.959504128,
250.9896393,-0.001358749345,250.9896393,2.905346632,
250.0056915,0.001226031687,250.0056915,2.747139454,
248.9822693,0.0008924809517,248.9822693,2.701007128,
247.9980927,-0.0002735285379,247.9980927,2.636705399,
247.0138245,-8.551881911E-005,247.0138245,2.61256218,
245.990097,-0.0003433710081,245.990097,2.557779074,
245.0056305,0.0003048106737,245.0056305,2.495710373,
243.98172,0.0009519376908,243.98172,2.426725864,
242.9970856,0.0002998889249,242.9970856,2.355029821,
242.0123596,-0.0003717186919,242.0123596,2.330075741,
240.9881134,0.001334710279,240.9881134,2.224882126,
240.0032196,0.000804089068,240.0032196,2.221939564,
239.0181732,0.0003469846561,239.0181732,2.230557203,
237.9937134,0.001084265998,237.9937134,2.281303406,
237.0085297,0.002212378429,237.0085297,2.320887566,
235.9838257,0.003301719436,235.9838257,2.307241917,
234.9984131,0.005898937117,234.9984131,2.484135151,
234.01297,0.01141158026,234.01297,2.528300285,
232.9879913,0.02374962717,232.9879913,2.637629032,
232.0023499,0.01184388157,232.0023499,2.755172968,
231.0166321,0.02375897765,231.0166321,2.734341383,
229.991394,0.02574075386,229.991394,2.005169153,
229.0054779,0.01355875842,229.0054779,2.079622746,
228.0194702,0.07459153235,228.0194702,1.446784496,
226.9939423,0.04504728317,226.9939423,0.8226990104,
226.0077667,0.03900612518,226.0077667,0.7875952125,
224.9820862,0.01375256013,224.9820862,1.003945351,
223.9957123,0.01549587585,223.9957123,0.6316037178,
223.0093231,0.001161346328,223.0093231,0.6262587905,
221.9833069,0.1053835601,221.9833069,0.5169330239,
220.9967194,0.03613212332,220.9967194,0.5498220921,
220.010025,-0.145067066,220.010025,0.305706054,
218.9837952,0.02895716392,218.9837952,0.3062479496,
217.9969482,-0.03426875174,217.9969482,0.5992148519,
217.0099945,0.007293229923,217.0099945,0.3051753938,
215.9835205,-0.05432563648,215.9835205,0.3770122826,
214.9963989,0.07351217419,214.9963989,0.2751803994,
214.0092316,0.1799093336,214.0092316,0.4029385746,
212.9824677,-0.1544540673,212.9824677,0.07770349085,
211.9951324,0.1451531649,211.9951324,0.3253527582,
211.0076904,-0.1039032489,211.0076904,0.1804107428,
209.9806824,0.1927803755,209.9806824,0.2957841158,
208.9930725,-0.1467391402,208.9930725,0.04064818844,
208.0054321,0.05156362057,208.0054321,0.1348704398,
207.0176544,-0.1081176102,207.0176544,0.02779944055,
205.9903259,0.1610869169,205.9903259,0.4153898358,
205.0024109,0.06954804063,205.0024109,0.1068557799,
204.0144501,0.1742095947,204.0144501,0.1878861487,
202.9868317,0.1460961401,202.9868317,0.1181681752,
201.9987183,-0.03489806131,201.9987183,0.06874196976,
201.0104828,0.1740494967,201.0104828,0.4262981415,
199.9826508,-0.214103058,199.9826508,-0.05732721835,

buffer only,
buffer only
Collection Time: 22/10/2019 17:33:35
Operator Name  :
Scan Version 5.0.0.999
Parameter List :
Instrument  Cary 60
Instrument Version  2.00
Start (nm)  800.0
Stop (nm)  200.0
X Mode  Nanometers
Y Mode  Abs
UV-Vis Scan Rate (nm/min)  600.00
UV-Vis Data Interval (nm)  1.00
UV-Vis Ave. Time (sec)  0.1000
Beam Mode  Dual Beam
Baseline Correction  On
Baseline Type  Baseline correction
Baseline File Name
Baseline Std Ref File Name
Cycle Mode  Off
Method Log     :
Method Name    :
Date/Time stamp: 22/10/2019 17:21:04
Method Modifications:
UVVIS SAT Changed: 22/10/2019 17:31:46, Old:0.0125, New:0.1000
Common SAT Changed: 22/10/2019 17:31:46, Old:0.0125, New:0.1000
Common Interval nm Changed: 22/10/2019 17:31:52, Old:     5.00, New:     1.00
Storage Changed: 22/10/2019 17:31:52, Old:1, New:0
Baseline Correction Changed: 22/10/2019 17:32:04, Old:0, New:1
End Method Modifications
<Current Wavelength> , 207.0

DM full,
DM full
Collection Time: 22/10/2019 17:34:56
Operator Name  :
Scan Version 5.0.0.999
Parameter List :
Instrument  Cary 60
Instrument Version  2.00
Start (nm)  800.0
Stop (nm)  200.0
X Mode  Nanometers
Y Mode  Abs
UV-Vis Scan Rate (nm/min)  600.00
UV-Vis Data Interval (nm)  1.00
UV-Vis Ave. Time (sec)  0.1000
Beam Mode  Dual Beam
Baseline Correction  On
Baseline Type  Baseline correction
Baseline File Name
Baseline Std Ref File Name
Cycle Mode  Off
Method Log     :
Method Name    :
Date/Time stamp: 22/10/2019 17:21:04
Method Modifications:
UVVIS SAT Changed: 22/10/2019 17:31:46, Old:0.0125, New:0.1000
Common SAT Changed: 22/10/2019 17:31:46, Old:0.0125, New:0.1000
Common Interval nm Changed: 22/10/2019 17:31:52, Old:     5.00, New:     1.00
Storage Changed: 22/10/2019 17:31:52, Old:1, New:0
Baseline Correction Changed: 22/10/2019 17:32:04, Old:0, New:1
End Method Modifications
<Current Wavelength> , 200.0

